##TITLE= Molar absorption coefficient in unit cm^2/mol).
##JCAMP-DX= 4.24
##DATA TYPE= INFRARED SPECTRUM
##ORIGIN= Exported GRAMS Data File
##OWNER= 
##DATE= 04/05/19
##TIME= 14:03:00
##NPOINTS=  7468
##XUNITS= 1/CM          
##YUNITS= ARBITRARY     
##RESOLUTION= 
##FIRSTX=  400.157
##LASTX=  4000.126
##XFACTOR= 1.0
##YFACTOR=  12.207E-5
##FIRSTY=  282.92
##MAXY=  174004                                 
##MINY=  118.24                                 
##XYDATA= (X++(Y..Y))
 400.15 2317722 2256418 2606365 2728292 2560146 2506264
 403.05 2511232 2469639 2438257 2418011 2396318 2335627
 405.94 2339579 2331646 2300489 2236582 2199688 2154764
 408.83 2171640 2178913 2132438 2070804 2056430 2035292
 411.72 2028201 2016760 2010937 1984185 1948578 1906595
 414.62 1902378 1879767 1869976 1870641 1833389 1769396
 417.51 1751653 1726780 1679598 1625450 1651217 1673736
 420.4  1691224 1676604 1687555 1676945 1654362 1642054
 423.29 1659562 1645845 1629998 1604551 1595003 1587640
 426.19 1588255 1583068 1585420 1571070 1573490 1575975
 429.08 1570388 1552063 1547438 1543360 1537412 1541448
 431.97 1541565 1518517 1527890 1533813 1529511 1518570
 434.86 1533242 1542752 1536867 1519593 1532576 1536433
 437.76 1528780 1520528 1532849 1533619 1540451 1544367
 440.65 1554878 1551592 1542691 1547644 1580810 1592453
 443.54 1604824 1632014 1657930 1666258 1684299 1712815
 446.44 1743165 1762529 1816141 1883862 1938152 1988151
 449.33 2041981 2090204 2153438 2226997 2304176 2374274
 452.22 2434682 2510693 2602543 2663419 2705954 2720899
 455.11 2709101 2681119 2632854 2560412 2493715 2443268
 458.01 2404267 2360823 2312424 2254060 2206058 2162256
 460.9  2116507 2086300 2074161 2067807 2058997 2018758
 463.79 1995896 1984251 1986983 1995381 1993765 1986846
 466.68 1986621 1980944 1983412 1995141 2002021 1992827
 469.58 1979830 1966201 1957320 1936974 1898880 1858867
 472.47 1855345 1865633 1857696 1835227 1817774 1796673
 475.36 1772408 1753407 1748246 1737051 1725181 1708890
 478.26 1691257 1687788 1689444 1678360 1663389 1652654
 481.15 1654967 1652139 1652780 1659765 1660544 1648288
 484.04 1657302 1677766 1693801 1700750 1701906 1706010
 486.93 1717475 1729577 1738056 1739041 1741605 1736805
 489.83 1728556 1719449 1709127 1688492 1670513 1663919
 492.72 1651163 1626588 1609089 1588051 1568450 1552151
 495.61 1534113 1518632 1502806 1480572 1463101 1449781
 498.5  1432846 1415832 1408452 1393152 1374405 1355874
 501.4  1334347 1315582 1309683 1309681 1301118 1290262
 504.29 1279044 1263021 1251748 1242643 1229877 1217251
 507.18 1219975 1216120 1205467 1199373 1204163 1201157
 510.07 1190958 1186007 1182256 1177868 1177685 1176355
 512.97 1173887 1169843 1168543 1167471 1171488 1173236
 515.86 1169044 1158823 1156845 1160657 1167178 1171809
 518.75 1166406 1155490 1154958 1158586 1156499 1154341
 521.65 1155053 1154977 1153046 1153679 1155385 1155824
 524.54 1146285 1138449 1136034 1138927 1156810 1165517
 527.43 1168274 1167388 1170890 1178235 1186655 1189972
 530.32 1193833 1194799 1195861 1199245 1204189 1204295
 533.22 1204786 1206245 1207243 1206162 1204122 1201584
 536.11 1207596 1212508 1211600 1210292 1210827 1212241
 539    1213331 1214140 1223656 1233567 1234825 1232979
 541.9  1233510 1233436 1237167 1241891 1243401 1245627
 544.79 1248167 1250796 1261803 1271405 1279872 1285143
 547.68 1293130 1303530 1311792 1315869 1318692 1320259
 550.57 1318486 1315664 1310208 1302073 1304164 1306124
 553.47 1306203 1304285 1300005 1298052 1296802 1293125
 556.36 1292777 1290378 1285813 1280778 1280088 1275865
 559.25 1272064 1269375 1268078 1265898 1264701 1258137
 562.14 1251482 1248098 1248737 1249691 1247220 1239804
 565.04 1233678 1230324 1226871 1223623 1223407 1223084
 567.93 1218886 1213629 1210381 1206061 1206593 1206171
 570.82 1204593 1200074 1194773 1190105 1188916 1187657
 573.71 1188695 1189662 1184795 1176041 1169523 1164090
 576.61 1164712 1163790 1160035 1151882 1147057 1142570
 579.5  1137691 1130973 1124564 1119143 1114897 1107367
 582.39 1099096 1092415 1087093 1079190 1071603 1068306
 585.29 1061671 1050360 1046217 1045558 1048348 1054202
 588.18 1050719 1036267 1024487 1017870 1015621 1010086
 591.07 1003643 994825 990528 990316 992339 992784
 593.96 989104 984384 984426 982661 978292 975414
 596.86 976233 977756 979202 977907 975877 972913
 599.75 969184 968658 971771 973310 975020 973196
 602.64 971764 971173 971319 970272 972827 975670
 605.53 977102 974811 973540 976436 982111 984333
 608.43 986751 988764 987790 986354 987130 990009
 611.32 994620 996712 998095 998786 1002203 1003853
 614.21 1006982 1011280 1014018 1016842 1019017 1019760
 617.11 1022929 1026483 1029101 1034914 1041599 1043686
 620    1046933 1053415 1059418 1063403 1065824 1066512
 622.89 1069797 1072854 1077294 1084719 1089713 1094106
 625.78 1100270 1102057 1103478 1106999 1115499 1121438
 628.68 1125508 1130772 1134762 1140871 1150779 1157571
 631.57 1163193 1171150 1178312 1182445 1190116 1197048
 634.46 1204935 1210554 1216134 1227673 1238056 1242360
 637.35 1247953 1256364 1265943 1276043 1286495 1293217
 640.25 1300951 1310703 1320798 1330515 1342744 1354681
 643.14 1365654 1375172 1383994 1393518 1408687 1421896
 646.03 1430796 1441232 1452687 1459223 1471113 1482830
 648.92 1487567 1497657 1510660 1516058 1524668 1539223
 651.82 1547741 1556443 1571003 1579692 1586568 1599513
 654.71 1610119 1615731 1630625 1649219 1660444 1673568
 657.6  1689059 1699022 1714997 1736000 1747727 1758362
 660.5  1778038 1792371 1805073 1828836 1848582 1840653
 663.39 1842575 1874168 1889696 1886324 1898656 1907660
 666.28 1828585 1635927 1855670 1965515 1815457 1812826
 669.17 1863894 1911683 1904980 1944525 2007279 1989019
 672.07 1970426 2005890 1961915 1922803 2036178 2130568
 674.96 2117340 2155452 2184388 2135278 2148300 2209284
 677.85 2181224 2204672 2313480 2351481 2339964 2374667
 680.74 2432206 2448215 2500528 2579408 2609434 2653972
 683.64 2767973 2835735 2851397 2916661 2979151 3019066
 686.53 3113025 3221500 3292045 3362371 3480946 3590112
 689.42 3652689 3750151 3845968 3903680 4001115 4135710
 692.32 4233501 4332807 4486396 4603438 4687273 4872188
 695.21 5083189 5229240 5388302 5571370 5727882 5895960
 698.1  6100698 6311108 6504168 6703683 6930011 7160251
 700.99 7395533 7672835 7969205 8257413 8578293 8938600
 703.89 9291938 9647332 10062455 10545127 11048604 11587842
 706.78 12195886 12834607 13498714 14226280 15026645 15874204
 709.67 16743997 17669776 18692746 19798120 20969455 22235648
 712.56 23622174 25131746 26771933 28556679 30511688 32650578
 715.46 34988659 37519095 40240450 43180845 46315793 49626664
 718.35 53149126 56810849 60549209 64501799 68683542 72822303
 721.24 76752024 80475428 83869959 86841037 89220955 90943540
 724.14 92030449 92445711 92213316 91068701 88815292 85676919
 727.03 81725018 77081304 72180237 67322887 62690941 58436466
 729.92 54641594 51268686 48283812 45667859 43389372 41401624
 732.81 39604302 37931194 36373742 34896919 33459076 32044158
 735.71 30678304 29353520 28124106 27005865 25978558 25067126
 738.6  24273554 23590597 22998434 22487915 22038045 21600996
 741.49 21244293 20875300 20493206 20120011 19752673 19370576
 744.38 18954940 18518795 19935916 20712689 21061850 20538471
 747.28 20017283 19331639 18588999 17255713 16139725 15506801
 750.17 15883013 16813646 18755312 22385072 28526198 37212080
 753.06 50590754 69976346 96255152 130143545 173976493 219701632
 755.95 269774604 320799682 372104596 419559609 451295060 467424090
 758.85 470054469 460114875 442785034 419949468 392120381 361346900
 761.74 327742512 292529251 262564557 243163230 231170337 218155085
 764.63 195724435 163237467 129320989 100957248 80151036 67665715
 767.53 61210032 57679089 57050668 59561734 64455582 70927150
 770.42 77790517 85481032 94431008 102621816 109277300 114574210
 773.31 118744545 121032270 120766655 116653726 104447638 90709139
 776.2  77190500 64066914 52329574 41450183 31677030 24033436
 779.1  18001874 13893344 11448868 9857585 9071332 8563857
 781.99 8471193 8800429 9060322 9428287 9712822 9725353
 784.88 9396746 9583550 9816005 10093622 10410311 10775924
 787.77 11196926 11666007 12169285 12713208 13299495 13906968
 790.67 14497987 15064846 15587056 16035359 16379715 16612304
 793.56 16718782 16701681 16571758 16375775 16147723 15902490
 796.45 15661106 15451769 15297852 15206419 15195320 15252678
 799.35 15359699 15525057 15724981 15929526 16097339 16177266
 802.24 16164333 16051126 15816363 15483853 15075111 14613668
 805.13 14137151 13671019 13228466 12816868 12445384 12121300
 808.02 11831709 11566167 11323818 11105301 10909614 10735828
 810.92 10582919 10453102 10354226 10286530 10247885 10240880
 813.81 10263168 10313561 10386258 10474305 10580650 10701395
 816.7  10825672 10952618 11081619 11201933 11325150 11467420
 819.59 11626150 11796073 11982196 12179444 12371765 12543528
 822.49 12678698 12755793 12763991 12698522 12568052 12374186
 825.38 12123624 11818208 11461457 11063817 10631061 10170784
 828.27 9701015 9236483 8792473 8379277 7997404 7642268
 831.17 7314420 7017336 6754353 6514685 6290575 6090838
 834.06 5921454 5767267 5621855 5493028 5380232 5278083
 836.95 5188167 5106381 5034512 4971538 4914302 4857750
 839.84 4805745 4764657 4730115 4697189 4665616 4637700
 842.74 4613024 4589231 4566920 4545852 4531394 4525634
 845.63 4518295 4512886 4520040 4535013 4547814 4566986
 848.52 4601733 4638227 4672404 4723718 4774629 4833159
 851.41 4896978 4971112 5052343 5143410 5233721 5329557
 854.31 5440007 5560297 5684682 5821604 5968252 6114963
 857.2  6268108 6443828 6634193 6838269 7064442 7322340
 860.09 7610323 7930806 8285734 8678341 9124389 9627674
 862.98 10180219 10811053 11529601 12322377 13179103 14074211
 865.88 14970788 15803848 16492750 16996829 17286524 17355479
 868.77 17250985 17033188 16731371 16397641 16080295 15809438
 871.66 15600700 15470999 15437054 15485328 15596815 15758543
 874.56 15948566 16166596 16396562 16645738 16929883 17278443
 877.45 17722819 18285512 18991174 19830537 20814345 22035573
 880.34 23498583 25192014 27083190 29082349 30937581 32307805
 883.23 32842685 32464725 31387760 30040731 28767434 27807859
 886.13 27240198 27077771 27291009 27800851 28518005 29269957
 889.02 29761387 29838375 29375766 28353581 26940688 25373894
 891.91 23820896 22402794 21150618 20088116 19222152 18559579
 894.8  18084996 17772893 17621738 17630771 17786108 18088439
 897.7  18531566 19091963 19728164 20388460 20996129 21473904
 900.59 21788451 21978683 22106075 22226671 22385469 22595340
 903.48 22835008 23073032 23252534 23297493 23166804 22847748
 906.38 22335309 21658433 20855906 19993864 19119564 18274561
 909.27 17487954 16769673 16117338 15549651 15055562 14615710
 912.16 14212954 13829520 13436664 13018954 12580493 12136974
 915.05 11682719 11224106 10775502 10344499 9940365 9565743
 917.95 9213641 8881156 8573722 8286149 8009610 7749543
 920.84 7506652 7281546 7071104 6877821 6695476 6526264
 923.73 6370596 6222966 6081664 5951992 5833529 5720204
 926.62 5608687 5503506 5401712 5301759 5206871 5126556
 929.52 5053998 4983030 4921326 4868772 4814006 4762897
 932.41 4727293 4704994 4679442 4654462 4634409 4627644
 935.3  4628210 4627113 4634927 4650702 4662190 4665922
 938.19 4669428 4681274 4691023 4697977 4705963 4711725
 941.09 4718394 4732579 4745698 4760221 4786071 4824702
 943.98 4872669 4932223 4998707 5073410 5161897 5262805
 946.87 5365586 5475762 5597774 5722720 5842068 5955128
 949.77 6055388 6137539 6200331 6249993 6285156 6300250
 952.66 6300120 6290454 6274707 6256086 6237318 6221833
 955.55 6211477 6211221 6217900 6229971 6245241 6265426
 958.44 6292373 6323050 6353897 6388709 6435331 6498893
 961.34 6579081 6673588 6780384 6905692 7051680 7219901
 964.23 7409072 7624265 7865046 8133051 8426623 8741054
 967.12 9077694 9431082 9795299 10167346 10538174 10893229
 970.01 11215534 11487169 11684949 11801986 11832039 11768640
 972.91 11611268 11376886 11085642 10760420 10421290 10084311
 975.8  9760041 9463914 9198368 8959247 8754680 8584385
 978.69 8437222 8316600 8222533 8147877 8087935 8044189
 981.59 8017465 8004883 8007081 8026857 8057044 8097022
 984.48 8144554 8198502 8265421 8335697 8407408 8494780
 987.37 8590723 8688486 8794837 8915359 9054235 9213084
 990.26 9391253 9591222 9814995 10063285 10333079 10625984
 993.16 10946986 11292869 11650998 12024936 12409428 12796249
 996.05 13180336 13554230 13908338 14230035 14508693 14735989
 998.94 14908942 15041315 15135692 15192549 15220819 15243227
 1001.8 15274447 15319636 15379202 15448200 15524645 15606766
 1004.7 15686061 15744677 15768464 15759077 15721022 15671381
 1007.6 15624673 15585111 15567116 15587382 15649085 15753537
 1010.5 15903353 16095500 16317376 16554554 16784575 16975000
 1013.4 17103949 17160929 17124020 16980681 16748383 16450342
 1016.3 16100924 15722649 15334991 14950662 14577698 14234917
 1019.1 13930721 13656319 13408233 13190873 13008920 12860133
 1022   12738683 12645553 12583319 12545941 12533803 12551235
 1024.9 12597191 12671706 12773003 12906319 13076095 13280274
 1027.8 13514220 13785887 14101448 14455088 14842641 15267049
 1030.7 15727527 16210055 16708280 17211242 17693470 18151146
 1033.6 18583170 18963686 19267821 19486754 19628822 19711173
 1036.5 19724173 19652529 19509352 19309921 19052090 18742423
 1039.4 18404277 18052230 17680702 17279952 16846055 16383107
 1042.3 15905990 15437515 15001924 14621417 14309295 14068326
 1045.2 13905335 13816744 13790033 13830195 13942912 14118578
 1048.1 14363039 14684809 15072488 15530269 16069302 16683540
 1051   17368775 18111494 18897593 19728361 20600465 21497980
 1053.9 22412243 23309824 24127574 24806424 25279036 25486397
 1056.8 25405172 25069139 24589265 24070203 23577974 23182760
 1059.6 22931807 22848030 22951548 23241373 23708182 24341773
 1062.5 25127824 26021272 26957444 27857217 28618626 29105677
 1065.4 29207022 28864095 28081739 26942339 25559763 24067879
 1068.3 22569662 21121999 19773291 18543373 17437683 16455407
 1071.2 15587685 14819734 14148287 13569289 13066065 12628907
 1074.1 12255064 11930450 11647925 11397059 11173262 10974493
 1077   10784943 10595667 10416688 10245329 10060328 9850660
 1079.9 9629072 9407198 9183389 8952971 8722563 8504978
 1082.8 8306147 8121549 7949101 7787296 7640133 7505523
 1085.7 7380501 7261950 7148255 7040269 6940588 6838970
 1088.6 6734022 6626736 6516764 6408522 6311050 6214520
 1091.5 6110937 6011811 5921720 5832780 5744282 5661490
 1094.4 5592763 5535426 5481187 5424493 5369755 5318490
 1097.2 5275993 5239710 5212428 5189114 5166244 5148755
 1100.1 5138017 5131023 5120351 5106844 5103362 5108751
 1103   5114263 5113196 5109073 5107631 5105995 5094966
 1105.9 5083897 5082241 5083397 5083787 5082346 5084391
 1108.8 5094066 5098579 5099892 5107372 5120771 5137448
 1111.7 5161594 5195875 5233248 5271698 5318811 5371389
 1114.6 5436734 5513456 5590647 5667343 5752442 5846195
 1117.5 5948283 6054602 6165424 6282658 6409773 6545914
 1120.4 6693788 6850127 7011560 7180881 7360680 7548124
 1123.3 7747871 7959793 8187212 8436846 8715339 9023313
 1126.2 9368205 9746535 10163866 10628664 11147495 11724628
 1129.1 12367055 13078699 13868126 14738700 15692193 16727459
 1132   17838890 19012758 20252290 21523654 22766624 23899675
 1134.9 24833624 25436989 25591069 25272854 24581467 23606904
 1137.7 22473337 21289153 20141078 19065765 18092113 17221589
 1140.6 16456357 15778192 15167925 14616129 14124141 13667872
 1143.5 13235060 12823056 12427419 12042996 11671926 11309239
 1146.4 10960156 10634819 10344204 10090302 9872539 9681017
 1149.3 9515532 9377307 9258885 9144774 9028165 8894259
 1152.2 8740660 8578326 8407039 8217774 8021153 7832963
 1155.1 7655880 7489728 7345292 7214412 7097539 6999490
 1158   6918457 6842033 6782485 6740593 6708501 6686270
 1160.9 6679626 6684543 6695558 6712615 6742484 6770407
 1163.8 6798810 6826023 6840370 6832931 6800459 6745693
 1166.7 6681634 6611467 6540855 6473579 6413624 6363457
 1169.6 6316122 6266481 6216946 6161494 6097200 6027339
 1172.5 5956445 5876075 5794747 5718559 5644194 5570192
 1175.4 5503856 5443732 5388951 5340582 5305273 5280095
 1178.2 5264609 5257899 5266270 5278467 5282021 5259898
 1181.1 5196449 5108700 5036775 4982985 4938725 4908328
 1184   4895971 4892950 4895254 4898252 4903017 4913923
 1186.9 4928551 4933215 4936004 4940915 4953559 4969915
 1189.8 4987681 5004864 5031983 5056624 5086566 5129619
 1192.7 5174833 5214865 5257764 5299650 5350005 5397379
 1195.6 5439257 5477444 5517504 5548919 5571588 5585873
 1198.5 5599018 5620022 5654729 5696574 5748202 5801522
 1201.4 5866593 5940493 6016958 6093466 6176903 6267231
 1204.3 6365373 6468237 6581269 6703493 6836851 6977728
 1207.2 7129020 7289602 7471248 7672836 7898509 8151857
 1210.1 8429650 8732961 9072427 9429113 9810429 10203006
 1213   10583643 10939072 11253264 11503655 11685840 11800580
 1215.9 11869298 11924078 11991236 12080361 12196392 12329568
 1218.7 12483677 12635300 12754585 12820370 12823829 12749212
 1221.6 12612832 12433863 12226325 11990336 11738809 11449698
 1224.5 11119193 10757972 10393606 10045483 9733078 9463527
 1227.4 9250320 9071288 8920452 8797677 8708680 8647630
 1230.3 8607384 8573131 8564788 8581852 8607983 8643739
 1233.2 8694635 8758412 8844747 8938801 9035827 9147595
 1236.1 9288706 9450558 9609346 9789412 10006592 10259552
 1239   10540527 10853755 11196823 11570477 11986368 12471189
 1241.9 13016925 13636044 14341612 15157929 16071571 17069712
 1244.8 18109205 19134068 20054476 20748700 21084274 21014313
 1247.7 20548559 19790152 18868580 17908503 16972989 16093895
 1250.6 15286910 14570452 13936029 13379473 12886185 12451056
 1253.5 12060020 11723417 11427296 11169251 10938412 10747546
 1256.3 10590643 10464327 10352853 10262328 10194131 10154780
 1259.2 10124385 10108470 10089811 10063777 10032283 10002103
 1262.1 9968436 9938884 9916323 9899706 9883134 9882622
 1265   9896641 9927487 9972107 10031085 10086212 10151188
 1267.9 10228535 10315204 10406073 10504144 10607649 10717526
 1270.8 10834262 10977309 11122022 11260968 11416029 11595302
 1273.7 11790376 12009395 12251301 12525145 12821732 13147902
 1276.6 13509373 13904564 14315071 14726197 15124111 15501900
 1279.5 15841855 16132513 16373941 16569932 16725659 16867419
 1282.4 17023944 17226048 17483004 17799372 18182200 18646025
 1285.3 19187622 19812575 20517944 21296199 22109592 22922338
 1288.2 23703160 24434938 25127375 25804649 26489170 27172913
 1291.1 27819249 28383181 28794339 28994983 28958211 28680905
 1294   28183601 27511753 26717070 25861521 25006652 24185782
 1296.8 23422531 22744103 22172408 21712085 21348903 21069174
 1299.7 20874524 20762470 20731116 20775080 20903720 21125554
 1302.6 21432995 21823239 22297945 22834702 23398043 23912012
 1305.5 24267658 24339337 24062810 23468839 22652399 21726888
 1308.4 20812797 19968219 19231922 18623888 18134074 17743952
 1311.3 17456022 17264034 17149799 17065054 17005369 16929645
 1314.2 16787889 16586671 16336607 16051490 15773008 15537636
 1317.1 15329858 15133233 14989758 14898839 14838583 14782839
 1320   14767325 14778512 14820018 14878698 14961028 15054079
 1322.9 15185192 15336596 15506149 15699805 15934663 16202732
 1325.8 16523892 16873763 17268038 17703885 18178894 18644250
 1328.7 19089182 19474123 19787087 19989092 20128818 20252675
 1331.6 20422938 20641913 20957863 21394799 21965260 22637360
 1334.5 23439421 24351608 25401240 26558441 27987631 29513147
 1337.3 30965569 32520852 34287813 36009199 37548707 38979334
 1340.2 40516193 41732522 42499461 42829024 42520202 41465886
 1343.1 39809497 37778872 35666391 33670290 31957663 30537565
 1346   29445191 28620528 28045458 27673476 27512662 27510191
 1348.9 27690004 28005088 28376243 28749553 29125269 29373982
 1351.8 29475236 29407852 29186253 28822581 28432000 27963559
 1354.7 27643611 27451300 27311494 27263726 27313962 27461027
 1357.6 27744402 28136063 28521580 29040601 29664203 30252058
 1360.5 30592288 32008515 33260413 33826441 34599435 36472617
 1363.4 39041948 40158593 41530612 43076207 44712108 46216802
 1366.3 47736847 49111648 50432504 51526619 53108018 55425871
 1369.2 57470392 59729219 62519397 65693846 69551017 74025376
 1372.1 79364665 85210733 91297512 101103658 112209434 121567462
 1374.9 135896912 150479491 164607524 179948229 194247599 206138858
 1377.8 214984262 219285118 218639962 214276385 206467209 196814681
 1380.7 185558121 173893056 161802141 150202252 138997562 128686209
 1383.6 119005988 110286637 102172174 94885345 88198315 82200105
 1386.5 76876979 72010253 67934204 64519215 61142501 58183289
 1389.4 55425070 53024335 50810906 48941888 47119138 45488699
 1392.3 43998352 42677836 41360131 39651311 39018497 39066751
 1395.2 37461848 37110793 36655353 35748470 34694719 34416635
 1398.1 33985680 32682205 33144960 33500214 32721403 32325218
 1401   31969119 31746234 31494119 31297941 31072200 30910188
 1403.9 30550659 29901058 30517930 31101927 30697873 30588635
 1406.8 30494972 30540439 30571165 30696597 30661299 30635907
 1409.7 30754460 30985808 30946480 31061042 31304325 31589152
 1412.6 31724312 31897387 31999264 32159932 32320459 32552160
 1415.4 32612611 33027368 33081470 32815361 33960425 34337462
 1418.3 33430449 32587588 36437918 37442181 36939267 37200370
 1421.2 37598256 38165407 38691303 39095985 39124959 40209858
 1424.1 41844773 42424823 43000944 43825620 44586958 45385275
 1427   46265275 47190114 48291452 49462621 50059896 50811811
 1429.9 53496764 54945560 55921905 57371626 59014099 60583369
 1432.8 62361912 64688336 66627005 68630852 70733040 72890342
 1435.7 74299401 75278506 83935208 86730665 88110213 90810177
 1438.6 93798056 96886475 100105867 103309491 106503080 109739182
 1441.5 113183569 116718309 120453258 124261911 128185912 132140980
 1444.4 136199014 140410910 144798524 149068874 153657776 157859437
 1447.3 162166925 170349213 177616332 183032669 190461671 198443662
 1450.2 207214543 216253000 225566510 235711225 247738536 257291822
 1453.1 267465271 277498283 287890745 297345679 309124975 318324213
 1455.9 324752809 337221945 353849758 353711230 359787747 364291681
 1458.8 367761619 368499673 369387332 368172843 367295777 365024391
 1461.7 364461963 362773762 362981017 362871380 364580809 365503080
 1464.6 371751620 374567851 377702036 379498037 382023369 381795192
 1467.5 381273399 377816734 372538562 361949067 349042550 332616844
 1470.4 315788242 298708092 282202574 255582905 238217906 225523108
 1473.3 206218258 189968556 178860432 166987216 156721982 146297392
 1476.2 135255302 127190524 120432922 113495174 107336569 101565336
 1479.1 96489143 91624024 87287810 83066246 79485619 76115412
 1482   72988653 69937130 67212707 64615075 62218920 59850306
 1484.9 57743319 55583075 53790869 51823070 49604478 48842761
 1487.8 47659293 45645155 43959905 42454658 41794670 40321246
 1490.7 39691937 39129949 37818238 36764770 35858254 34951184
 1493.5 34020929 33292567 32502811 31501100 29700718 29174156
 1496.4 30064383 28949844 28112024 26771262 25521560 26451529
 1499.3 25902416 25104576 24621496 24006497 23287539 22995557
 1502.2 22637380 22050722 21540483 21104689 20697430 19418278
 1505.1 17680532 19632230 17967441 16026837 18978440 18321737
 1508   17210471 17864434 17107292 16630361 17180256 16874316
 1510.9 16746221 15787859 15085960 16126956 15905545 15473327
 1513.8 15160055 14325001 14373989 14681272 13831991 13287014
 1516.7 12839239 12770772 13988311 13600618 13352310 12906190
 1519.6 11811492 12224818 11215458 11437460 13087699 11022675
 1522.5 11590397 12390602 12055588 11709169 11155553 10069193
 1525.4 11396899 11849285 10971239 10304599 11187503 10688823
 1528.3 10376794 10994743 10722231 10519953 10369121 9980270
 1531.2 9541305 10186463 10023422 8968423 8401651 8985425
 1534   10293813 9751170 9309064 9317631 9266453 9164931
 1536.9 9131798 8789174 8033439 6358650 8081757 8281111
 1539.8 6381271 9250746 9072918 7091166 6716443 9355705
 1542.7 8124583 8014892 8603889 7809457 6685237 8247844
 1545.6 8653407 8324302 8203062 8123450 8088667 8105884
 1548.5 8013191 7432277 6848867 7552759 8122120 7753451
 1551.4 7593414 7514066 7579151 7590504 6838416 5226761
 1554.3 7440045 7659855 7139353 7069370 7071647 5936797
 1557.2 5002328 5165129 5209645 8025444 5767377 3522044
 1560.1 7218142 7753376 7034790 6849227 6786497 6772718
 1563   6716678 6786389 6297772 5867045 6851740 6788417
 1565.9 6542250 6474815 6466064 6524232 6434081 5970998
 1568.8 5591696 4804262 6518437 6837830 6346897 6324249
 1571.7 6175943 6064832 5987880 6015176 5973612 6066770
 1574.5 6119166 5551924 3399332 5212080 6914477 6216959
 1577.4 6076890 6041286 5951373 5934974 5953056 5946645
 1580.3 5860984 5853972 5865514 5850746 5860496 5825662
 1583.2 5753644 5772596 5780002 5740351 5731954 5776126
 1586.1 5758303 5783010 5701018 5615019 5603480 5646298
 1589   5676242 5725799 5704845 5669970 5640482 5783018
 1591.9 5895659 5854256 5840137 5813001 5658996 5844468
 1594.8 6029558 5950727 5914490 6063989 6119686 6115272
 1597.7 6174668 6211235 6171617 6173181 6182456 6162891
 1600.6 6123092 6156195 6199363 6174028 6147063 6173400
 1603.5 6195293 6184796 6182371 6172826 6173356 6170822
 1606.4 6166010 6173202 6184415 6180852 6178985 6176249
 1609.3 6192153 6202050 6204852 6209760 6218918 6228359
 1612.2 6240422 6250601 6261161 6271403 6284495 6293303
 1615   6297963 6284426 6247675 6306635 6351185 6322656
 1617.9 6308998 6293837 6275354 6249669 6222801 6192878
 1620.8 6163709 6127385 6088254 6043697 5985536 5956963
 1623.7 5958305 5905041 5865069 5825044 5789088 5745955
 1626.6 5701062 5639736 5619142 5597704 5557252 5520439
 1629.5 5485696 5453427 5424339 5393289 5364859 5331627
 1632.4 5301316 5271487 5244960 5208016 5152324 5092514
 1635.3 5121474 5150122 5106507 5061401 5060503 5066332
 1638.2 5043517 5024534 5004060 4988800 4982688 4975146
 1641.1 4961911 4950129 4943466 4936993 4927679 4922048
 1644   4915236 4905921 4874463 4838253 4907704 4889247
 1646.9 4851183 4867903 4874132 4900783 4893434 4888843
 1649.8 4890832 4890273 4884215 4866542 4812690 4771421
 1652.6 4760807 4870037 4855920 4851287 4910869 4894856
 1655.5 4887379 4888979 4890858 4887546 4884837 4879199
 1658.4 4873285 4862762 4855622 4844366 4831603 4819777
 1661.3 4810600 4777758 4759271 4810333 4799346 4782368
 1664.2 4779539 4773973 4768243 4761118 4755956 4750016
 1667.1 4742201 4726275 4722894 4692005 4728349 4784539
 1670   4757877 4735300 4729925 4780362 4781521 4780056
 1672.9 4785037 4788403 4783012 4750959 4746540 4868215
 1675.8 4858513 4849714 4859613 4875031 4887033 4896499
 1678.7 4896918 4896002 4904556 4927960 4943346 4939049
 1681.6 4936538 4922446 4892529 4900664 4891736 4855015
 1684.5 4895067 4972876 4943726 4926312 4920516 4914329
 1687.4 4896222 4888885 4901631 4892492 4871199 4874442
 1690.3 4886846 4872694 4862603 4855834 4846645 4835497
 1693.1 4826883 4815411 4795908 4753343 4686257 4740528
 1696   4786291 4736531 4708383 4710013 4691257 4664061
 1698.9 4617542 4551956 4508624 4573361 4600783 4561038
 1701.8 4525576 4495278 4463254 4419066 4362651 4346800
 1704.7 4319623 4254381 4192491 4172275 4136960 4085767
 1707.6 4041922 3995727 3952574 3902517 3853827 3822447
 1710.5 3787559 3744357 3708974 3670503 3634082 3593292
 1713.4 3548626 3523257 3476611 3453517 3455939 3411995
 1716.3 3366084 3304128 3347906 3304130 3270708 3309077
 1719.2 3283316 3255873 3240008 3221744 3207504 3193242
 1722.1 3177309 3152090 3137825 3135544 3118146 3100528
 1725   3088106 3075257 3063821 3051766 3039879 3029677
 1727.9 3023571 3015128 2999532 2977842 3002143 3018526
 1730.8 3007040 3003435 3007679 3001916 2968664 3003863
 1733.6 2984333 2968727 3080650 3054905 3041775 3042102
 1736.5 3045098 3048224 3061109 3060104 3052139 3022385
 1739.4 3037203 3091211 3068119 3050041 3037964 3015932
 1742.3 2983255 2965105 2960126 2932823 2902366 2872853
 1745.2 2838940 2810496 2770677 2734056 2712175 2670311
 1748.1 2628579 2612078 2590462 2563495 2518026 2456982
 1751   2472087 2486867 2445935 2423442 2409514 2393572
 1753.9 2378296 2364154 2352500 2338907 2310436 2295121
 1756.8 2329875 2315782 2302060 2300081 2301893 2298165
 1759.7 2297918 2294696 2283208 2256277 2309113 2335030
 1762.6 2320249 2325312 2334762 2345604 2354813 2367637
 1765.5 2383752 2399871 2413796 2421000 2409252 2469152
 1768.4 2527532 2524540 2542625 2563133 2571014 2593274
 1771.2 2674057 2659361 2679898 2820256 2836283 2847140
 1774.1 2875812 2895545 2926032 2980320 3004257 3019005
 1777   3034833 3045066 3048044 3043989 3041729 3022175
 1779.9 2984632 2971968 2955102 2910522 2870253 2822489
 1782.8 2776792 2728211 2677287 2616926 2594386 2558719
 1785.7 2514469 2476294 2442468 2410224 2380954 2353562
 1788.6 2330229 2304435 2283447 2249295 2238938 2252842
 1791.5 2219667 2180132 2237205 2251224 2224323 2215604
 1794.4 2211808 2205911 2196309 2201426 2198284 2188587
 1797.3 2181542 2170930 2158034 2129332 2127137 2144018
 1800.2 2118481 2094766 2093952 2076897 2068605 2073457
 1803.1 2053551 2040857 2027385 2016108 2003354 1991240
 1806   1974091 1956404 1933728 1922965 1909238 1889839
 1808.9 1869911 1848109 1817246 1810385 1807122 1780352
 1811.7 1763990 1757213 1743063 1728233 1715113 1703323
 1814.6 1693601 1684364 1673578 1660631 1643591 1634214
 1817.5 1633433 1624430 1615816 1607238 1599837 1593921
 1820.4 1589809 1585794 1581291 1573553 1570812 1571356
 1823.3 1564640 1557123 1531369 1530139 1575905 1563534
 1826.2 1554120 1555044 1557251 1556644 1548314 1544279
 1829.1 1545975 1537851 1588782 1585648 1575972 1577704
 1832   1580131 1578660 1585191 1591118 1593438 1595272
 1834.9 1597971 1598374 1599215 1594603 1599658 1604579
 1837.8 1601206 1601121 1600190 1599381 1599357 1598277
 1840.7 1598684 1597645 1598722 1605482 1601256 1579124
 1843.6 1547181 1628319 1650005 1628422 1632624 1634711
 1846.5 1636696 1634594 1651252 1668078 1669164 1674218
 1849.4 1679862 1686250 1692556 1696431 1700425 1706162
 1852.2 1712826 1718127 1724618 1733278 1741922 1749552
 1855.1 1756157 1762458 1772028 1781831 1787771 1792252
 1858   1800678 1811326 1816459 1821533 1825180 1825471
 1860.9 1827351 1829681 1828231 1823903 1817421 1808157
 1863.8 1799465 1787281 1772873 1755648 1740659 1740343
 1866.7 1723114 1697980 1708370 1699082 1668494 1703508
 1869.6 1713992 1696153 1699844 1701552 1701921 1707779
 1872.5 1717733 1725109 1733407 1746138 1761054 1773142
 1875.4 1788063 1804466 1822449 1839771 1856640 1874082
 1878.3 1891969 1912043 1935362 1957228 1980253 2005444
 1881.2 2031452 2060179 2093267 2126623 2160461 2195349
 1884.1 2234994 2277409 2317575 2361391 2405840 2450573
 1887   2496367 2541343 2583527 2616341 2647815 2727258
 1889.8 2773473 2794148 2825669 2852389 2876217 2897999
 1892.7 2918746 2935017 2946491 2948094 2955215 2971341
 1895.6 2968697 2956941 2943411 2925454 2901754 2871298
 1898.5 2834721 2793611 2751100 2705436 2657389 2608571
 1901.4 2561898 2514788 2468970 2425009 2382308 2342037
 1904.3 2303668 2264746 2230791 2199519 2168344 2135752
 1907.2 2105208 2085578 2065201 2036864 2009774 1998185
 1910.1 1993209 1976752 1961298 1945147 1935011 1925408
 1913   1917736 1909446 1904075 1898425 1894275 1889608
 1915.9 1886582 1883844 1873462 1857583 1898224 1905365
 1918.8 1890977 1889242 1887840 1885460 1882885 1876698
 1921.7 1866109 1856388 1852412 1858257 1847814 1833290
 1924.6 1819884 1806937 1795484 1784275 1774409 1763821
 1927.5 1752193 1741970 1734288 1725968 1717136 1708670
 1930.3 1702633 1696298 1690100 1685069 1680614 1676832
 1933.2 1676916 1676700 1677315 1680184 1684826 1690521
 1936.1 1699801 1710761 1722330 1734098 1747690 1761676
 1939   1775841 1789441 1804959 1819853 1832932 1837228
 1941.9 1843696 1890066 1911673 1914162 1923476 1931148
 1944.8 1940036 1946201 1948348 1950702 1949773 1945511
 1947.7 1939020 1929593 1920084 1911067 1901532 1888592
 1950.6 1877955 1866658 1853464 1838693 1825825 1814234
 1953.5 1803498 1790549 1780456 1775226 1770746 1765320
 1956.4 1761992 1762353 1769572 1782055 1797089 1801764
 1959.3 1795743 1792238 1795042 1800754 1807584 1812732
 1962.2 1817220 1818327 1817367 1810909 1804116 1796672
 1965.1 1786658 1770108 1757030 1734914 1719736 1713371
 1968   1693949 1675079 1659668 1644165 1629279 1615483
 1970.8 1601107 1587977 1577068 1566771 1557803 1548722
 1973.7 1542262 1538909 1536600 1533625 1532192 1530145
 1976.6 1530729 1531551 1531451 1529809 1527208 1522189
 1979.5 1516325 1510056 1503391 1496256 1489401 1481472
 1982.4 1475548 1471378 1469001 1467298 1466811 1466604
 1985.3 1467924 1470332 1474497 1478781 1481342 1484749
 1988.2 1497595 1506209 1511650 1519284 1526374 1529181
 1991.1 1527773 1548619 1568919 1574625 1584362 1594847
 1994   1608168 1621926 1639075 1656083 1672698 1688528
 1996.9 1706642 1724935 1743471 1760778 1779207 1793148
 1999.8 1808089 1823194 1836597 1848860 1862162 1874515
 2002.7 1887617 1901412 1916881 1931752 1947523 1962453
 2005.6 1978529 1995909 2013014 2028231 2045345 2065259
 2008.4 2085394 2105047 2127160 2148835 2172672 2197723
 2011.3 2225077 2251296 2276556 2302757 2330306 2357911
 2014.2 2386813 2417202 2449572 2481296 2518118 2575306
 2017.1 2628988 2684333 2757527 2839646 2930645 3029057
 2020   3135514 3252759 3379726 3511146 3644114 3776073
 2022.9 3901005 4005629 4086189 4144059 4178186 4186646
 2025.8 4170764 4138940 4095653 4043980 3983704 3920046
 2028.7 3851979 3776317 3701365 3630928 3562483 3495969
 2031.6 3433776 3375727 3319805 3268970 3222979 3180021
 2034.5 3143570 3111807 3083370 3059647 3039795 3025507
 2037.4 3019204 3016278 3014734 3017858 3026785 3036910
 2040.3 3045654 3058204 3076113 3090258 3103553 3116281
 2043.2 3128762 3142758 3157628 3171015 3184184 3197744
 2046.1 3211636 3221448 3229566 3236367 3240376 3238375
 2048.9 3229198 3214499 3194317 3165113 3125772 3078051
 2051.8 3026586 2970478 2910391 2846696 2783030 2722254
 2054.7 2666712 2613283 2563358 2517519 2475988 2438992
 2057.6 2405509 2375566 2351769 2330295 2311690 2296873
 2060.5 2283836 2271336 2261972 2253988 2248596 2243969
 2063.4 2239228 2233040 2234122 2238795 2239080 2240197
 2066.3 2240834 2241409 2239699 2237028 2234884 2231817
 2069.2 2228571 2223842 2218395 2211162 2204183 2197675
 2072.1 2189460 2181191 2174645 2165924 2157498 2148149
 2075   2139131 2130584 2121935 2112159 2102307 2091729
 2077.9 2080665 2069971 2058658 2045729 2032910 2018831
 2080.8 2002361 1983534 1967624 1951491 1933743 1917652
 2083.7 1903819 1890837 1878948 1867091 1858026 1851304
 2086.6 1845149 1840377 1837752 1835249 1834239 1833596
 2089.4 1835161 1840872 1847712 1853574 1861415 1869717
 2092.3 1879770 1890144 1903489 1917643 1930837 1942434
 2095.2 1953500 1964584 1977006 1989326 2001127 2011342
 2098.1 2021548 2032782 2044819 2056353 2069429 2080668
 2101   2091797 2102990 2114433 2124712 2136230 2145229
 2103.9 2153555 2160495 2165076 2169183 2174509 2175899
 2106.8 2175659 2179001 2181335 2180808 2180636 2183032
 2109.7 2186658 2188418 2189335 2193273 2197371 2198831
 2112.6 2203863 2208291 2211832 2216331 2223223 2230758
 2115.5 2240228 2247607 2254201 2261441 2269043 2274559
 2118.4 2280174 2283999 2290179 2293885 2294992 2293522
 2121.3 2291991 2290156 2287167 2282608 2279649 2279062
 2124.2 2278689 2277813 2278611 2280933 2284781 2290431
 2127   2301565 2315580 2328165 2343481 2362862 2382422
 2129.9 2403201 2426973 2453226 2481194 2510403 2538833
 2132.8 2567427 2595961 2623924 2649311 2673215 2693460
 2135.7 2711738 2725583 2733870 2740414 2743924 2741601
 2138.6 2737115 2732211 2727921 2721044 2714480 2710634
 2141.5 2709102 2709158 2712969 2719854 2731333 2746414
 2144.4 2762280 2781008 2806601 2833785 2861017 2890636
 2147.3 2925773 2961866 2996020 3028778 3060591 3091168
 2150.2 3120990 3148581 3170837 3188662 3204947 3218600
 2153.1 3228721 3235848 3242774 3249451 3253245 3255578
 2156   3259582 3262914 3265181 3267839 3272215 3276572
 2158.9 3278907 3282658 3286488 3289018 3293609 3299412
 2161.8 3305083 3309358 3314704 3324554 3334699 3345668
 2164.7 3358761 3376248 3397409 3417000 3441002 3467234
 2167.5 3494584 3523777 3555530 3589336 3621399 3653810
 2170.4 3686161 3717854 3747812 3778481 3812569 3842154
 2173.3 3867114 3895551 3924109 3949858 3974003 4000903
 2176.2 4027290 4048871 4069989 4093250 4114461 4131075
 2179.1 4149000 4168744 4184191 4196948 4208144 4217769
 2182   4224921 4229140 4234285 4236204 4234224 4229515
 2184.9 4223151 4214625 4201474 4190465 4179854 4167415
 2187.8 4155969 4144595 4133804 4123760 4117135 4109731
 2190.7 4101922 4096729 4091926 4086767 4083115 4079868
 2193.6 4077265 4077702 4077929 4079969 4086035 4092692
 2196.5 4100744 4110343 4119751 4129289 4138737 4146059
 2199.4 4151980 4155821 4155032 4151427 4144698 4134798
 2202.3 4121969 4108564 4094342 4075174 4053655 4031991
 2205.1 4009546 3983974 3956022 3926284 3895758 3863992
 2208   3830592 3798684 3768844 3737391 3704425 3674898
 2210.9 3647530 3619000 3593207 3571837 3549143 3524767
 2213.8 3502151 3480060 3456088 3431064 3409183 3386485
 2216.7 3365230 3345454 3325155 3304328 3285529 3268269
 2219.6 3252420 3234755 3219137 3205874 3192400 3178663
 2222.5 3168667 3159393 3151419 3144727 3139452 3134645
 2225.4 3131951 3130567 3130698 3131017 3132662 3135404
 2228.3 3139866 3144165 3149509 3154674 3161227 3167471
 2231.2 3174108 3179384 3185521 3193662 3204514 3213036
 2234.1 3222748 3235866 3251574 3269512 3290814 3313463
 2237   3338853 3365485 3394086 3425498 3460460 3497083
 2239.9 3535175 3574283 3614836 3656830 3698925 3738523
 2242.8 3779481 3822214 3862451 3896910 3927703 3955777
 2245.6 3980476 3999036 4014359 4027168 4034272 4037203
 2248.5 4041340 4042067 4040352 4036493 4029212 4021487
 2251.4 4016139 4007166 3996843 3987377 3979502 3969946
 2254.3 3961763 3953568 3948356 3944810 3943142 3943144
 2257.2 3947696 3952548 3956513 3963896 3978053 3994896
 2260.1 4010259 4025537 4045724 4065942 4084059 4103351
 2263   4123402 4136056 4144156 4154971 4162228 4160020
 2265.9 4155139 4153531 4149284 4138263 4129683 4126017
 2268.8 4118188 4110119 4110713 4112265 4109562 4110596
 2271.7 4116954 4121848 4123301 4127717 4132620 4129723
 2274.6 4125244 4123043 4115111 4101918 4087862 4072914
 2277.5 4054847 4034417 4015318 3992387 3969410 3947849
 2280.4 3923274 3896797 3872692 3847569 3821168 3793080
 2283.2 3764366 3735568 3708111 3679329 3649576 3619126
 2286.1 3590355 3563051 3536830 3508583 3481016 3456306
 2289   3433639 3409033 3391018 3370675 3356949 3348826
 2291.9 3337355 3325949 3323653 3322718 3325588 3328994
 2294.8 3330436 3338691 3358359 3367907 3382491 3400689
 2297.7 3423542 3458194 3479610 3502559 3536117 3581437
 2300.6 3625401 3658315 3696097 3747811 3812955 3855068
 2303.5 3902403 3950279 4035418 4097217 4148388 4197335
 2306.4 4277924 4370408 4419502 4463192 4525498 4627648
 2309.3 4682133 4706038 4730299 4802289 4844612 4833260
 2312.2 4815725 4834545 4857553 4816461 4766463 4745059
 2315.1 4761216 4711856 4650721 4610364 4637932 4605602
 2318   4546174 4505099 4562420 4551842 4495004 4467387
 2320.9 4560676 4575115 4527158 4516281 4640163 4673655
 2323.7 4633390 4638955 4770602 4802824 4763950 4774608
 2326.6 4902209 4924662 4875931 4894750 5038192 5033488
 2329.5 4976217 5031132 5171229 5129041 5083182 5180142
 2332.4 5266043 5197693 5173754 5303859 5325519 5240376
 2335.3 5260577 5393823 5350864 5284279 5382560 5453536
 2338.2 5377739 5371703 5528858 5514098 5453747 5558477
 2341.1 5660247 5603191 5634392 5800495 5802868 5780442
 2344   5933275 6027442 6001127 6092048 6241438 6241375
 2346.9 6281788 6399504 6449055 6469920 6495986 6538205
 2349.8 6602636 6593175 6598698 6686828 6677955 6647873
 2352.7 6743024 6742429 6688939 6797478 6802429 6726072
 2355.6 6809068 6790767 6705484 6767455 6724948 6627228
 2358.5 6671358 6579701 6493125 6534101 6427235 6368274
 2361.3 6410257 6299700 6302870 6313591 6210842 6274927
 2364.2 6251549 6203085 6290349 6226817 6263343 6309425
 2367.1 6262372 6354397 6321468 6347318 6404854 6373036
 2370   6454048 6427076 6461994 6479845 6463373 6510017
 2372.9 6477455 6513678 6482490 6499846 6486951 6478557
 2375.8 6464006 6444234 6434610 6403147 6381920 6341030
 2378.7 6309392 6264003 6224177 6169715 6118602 6059711
 2381.6 6002524 5942614 5885138 5821680 5759775 5693289
 2384.5 5628062 5565938 5508923 5451068 5392914 5337196
 2387.4 5284822 5233212 5180818 5134447 5090626 5047871
 2390.3 5005916 4963997 4923180 4882906 4843635 4806061
 2393.2 4767631 4729246 4689931 4650292 4609379 4570620
 2396.1 4533157 4493704 4454573 4419578 4385491 4353345
 2399   4323029 4299015 4280633 4266898 4257948 4259325
 2401.8 4265085 4278045 4298396 4329031 4367137 4412103
 2404.7 4463577 4522329 4584893 4652126 4721230 4792986
 2407.6 4865411 4934098 4998921 5059656 5113363 5162125
 2410.5 5204381 5239620 5269849 5299423 5325439 5346619
 2413.4 5362090 5372522 5377247 5376935 5369759 5358576
 2416.3 5342334 5319866 5293007 5262769 5225540 5182511
 2419.2 5134372 5077851 5014230 4942063 4864985 4784594
 2422.1 4700885 4619228 4541423 4466874 4398062 4334709
 2425   4276229 4225619 4181507 4144279 4113525 4087543
 2427.9 4066617 4052300 4041941 4038076 4040134 4047060
 2430.8 4053466 4064106 4078845 4092356 4106334 4122525
 2433.7 4137141 4152700 4165175 4172383 4176396 4176765
 2436.6 4171745 4161905 4147353 4128443 4106889 4085247
 2439.4 4059698 4032360 4005080 3979284 3952519 3926535
 2442.3 3901376 3877522 3853678 3832023 3811762 3793248
 2445.2 3773174 3753525 3733775 3714500 3695385 3677912
 2448.1 3660002 3642962 3627864 3615119 3600083 3587511
 2451   3576465 3563926 3550859 3539741 3530698 3522895
 2453.9 3512613 3506083 3502304 3493988 3486558 3483486
 2456.8 3479019 3474799 3473224 3469763 3465675 3465443
 2459.7 3466460 3470067 3473033 3471210 3472026 3467462
 2462.6 3465843 3480681 3492655 3492757 3501468 3517853
 2465.5 3522226 3524505 3531491 3541410 3543629 3549407
 2468.4 3576208 3595213 3602762 3621761 3652445 3673451
 2471.3 3685033 3704259 3730825 3761559 3787438 3808565
 2474.2 3825915 3843581 3850191 3854119 3867179 3864912
 2477.1 3853990 3844091 3825397 3814329 3808510 3794299
 2479.9 3779453 3762981 3748966 3745220 3739322 3733085
 2482.8 3738080 3749817 3758698 3765411 3780270 3807582
 2485.7 3829557 3845739 3869683 3903790 3931505 3953953
 2488.6 3979558 4021599 4058762 4087840 4126265 4162128
 2491.5 4198479 4245162 4284781 4322032 4361909 4398427
 2494.4 4437736 4490210 4542251 4576287 4611750 4653690
 2497.3 4696015 4730023 4751413 4765988 4781503 4789915
 2500.2 4794050 4788434 4775603 4758826 4737933 4716129
 2503.1 4698124 4677752 4651265 4624994 4607885 4590141
 2506   4576854 4556179 4529671 4507559 4484886 4473648
 2508.9 4466931 4456672 4446531 4454599 4474360 4489971
 2511.8 4506005 4526619 4548245 4571069 4599243 4612534
 2514.7 4620781 4641299 4652841 4651225 4649989 4648530
 2517.5 4647221 4633688 4620575 4624125 4632739 4633972
 2520.4 4635615 4640999 4644655 4657418 4669700 4675676
 2523.3 4694029 4703610 4708319 4725105 4736203 4737339
 2526.2 4749739 4768809 4778746 4790693 4809577 4832510
 2529.1 4854845 4878784 4901434 4926123 4961848 4997846
 2532   5020377 5047531 5088081 5118890 5143623 5188377
 2534.9 5225434 5240739 5264041 5292382 5309405 5319747
 2537.8 5334735 5362303 5395613 5427877 5462549 5505543
 2540.7 5556015 5614154 5670776 5726775 5793294 5852285
 2543.6 5898399 5944134 5990176 6025833 6054492 6070772
 2546.5 6079647 6085497 6082513 6066248 6041702 6013281
 2549.4 5979470 5943672 5910571 5877604 5855057 5841495
 2552.3 5827708 5810522 5806409 5816986 5828458 5834009
 2555.2 5852502 5878868 5902838 5925847 5959838 5992366
 2558   6030998 6080457 6120035 6160358 6216038 6273530
 2560.9 6334341 6399815 6465761 6537769 6619217 6707515
 2563.8 6802507 6903536 7005996 7109611 7226326 7366964
 2566.7 7508343 7638423 7781491 7943938 8091350 8242729
 2569.6 8420489 8601015 8772367 8956380 9153371 9353105
 2572.5 9564320 9790892 10020361 10240749 10466431 10702514
 2575.4 10938683 11173777 11407163 11623288 11829874 12024400
 2578.3 12217698 12399808 12562794 12700711 12820076 12928173
 2581.2 13024669 13094382 13145906 13181491 13208730 13214402
 2584.1 13218607 13218714 13214786 13196101 13186514 13174899
 2587   13145696 13114886 13102460 13096870 13080750 13062190
 2589.9 13067084 13082476 13095627 13114648 13165846 13227890
 2592.8 13284852 13369630 13476870 13577014 13706759 13849623
 2595.6 13985778 14130621 14296976 14473660 14657148 14842169
 2598.5 15038755 15232296 15425911 15618996 15800192 15983404
 2601.4 16155622 16307945 16452536 16583102 16703954 16797145
 2604.3 16869068 16921059 16967115 16989827 16994300 16991751
 2607.2 16978279 16944095 16895566 16839748 16777154 16692764
 2610.1 16601409 16506473 16412020 16322967 16239075 16154602
 2613   16072384 15986526 15911547 15851305 15779485 15702845
 2615.9 15645257 15577576 15489768 15403056 15331454 15259506
 2618.8 15185190 15104619 15025984 14961144 14906667 14864155
 2621.7 14835972 14824127 14825022 14829260 14847773 14865462
 2624.6 14896361 14930050 14965460 15008096 15051737 15077773
 2627.5 15096685 15097938 15103425 15110224 15096055 15075241
 2630.4 15066837 15051452 15041411 15024812 15012417 15026842
 2633.3 15052728 15061741 15094905 15163423 15235086 15307029
 2636.1 15406647 15539611 15695154 15849802 16018392 16203122
 2639   16401172 16588088 16774654 16965855 17142249 17301844
 2641.9 17460408 17606488 17722594 17830850 17941730 18035626
 2644.8 18123808 18210134 18303723 18390027 18473593 18557091
 2647.7 18646453 18720368 18784055 18855073 18935851 19007781
 2650.6 19066419 19099350 19123718 19131718 19137012 19121533
 2653.5 19095479 19065531 19040947 19016012 18989685 18969732
 2656.4 18956895 18950771 18963160 19008266 19086976 19182569
 2659.3 19295687 19428260 19605907 19808637 20023600 20257874
 2662.2 20514370 20789969 21094831 21391549 21706880 22038450
 2665.1 22370509 22707471 23042517 23370191 23686900 24004614
 2668   24308694 24591770 24862636 25086351 25296057 25460383
 2670.9 25589027 25693887 25770096 25804101 25813731 25767094
 2673.7 25663929 25541461 25400658 25224917 25049447 24867418
 2676.6 24666228 24436954 24232518 24044420 23849160 23649172
 2679.5 23481346 23318783 23153577 23004955 22863317 22715920
 2682.4 22572352 22427451 22291086 22140810 21987118 21831562
 2685.3 21665382 21488294 21312338 21105925 20876596 20624169
 2688.2 20382615 20128249 19856782 19578104 19300817 19017975
 2691.1 18750551 18489109 18229511 17976032 17735333 17512316
 2694   17316699 17133534 16977698 16832894 16702599 16587412
 2696.9 16507288 16457271 16422413 16407582 16415487 16437793
 2699.8 16480412 16542022 16627005 16721740 16826317 16951464
 2702.7 17088058 17229235 17397655 17568159 17728183 17903749
 2705.6 18077025 18264646 18455818 18636096 18839053 19063093
 2708.5 19311189 19567407 19831325 20097102 20382886 20680069
 2711.3 20980340 21285695 21604115 21914759 22206249 22479356
 2714.2 22730209 22965687 23194380 23389426 23572587 23747566
 2717.1 23915678 24081488 24233713 24383685 24566299 24763286
 2720   24976479 25197978 25462222 25794996 26175178 26570301
 2722.9 27009964 27512432 28115518 28760205 29488305 30298123
 2725.8 31145716 32012232 32940853 33889279 34837814 35757157
 2728.7 36694319 37572891 38261104 38819877 39286925 39554666
 2731.6 39685082 39613651 39443127 39124093 38709530 38315850
 2734.5 37889435 37377628 36810425 36293442 35850392 35354596
 2737.4 34783597 34204556 33672834 33177956 32678750 32175985
 2740.3 31705848 31278242 30856524 30454698 30090659 29722084
 2743.2 29395742 29107391 28848151 28561533 28279498 28026674
 2746.1 27813111 27612804 27411749 27193163 26981103 26768687
 2749   26598376 26457572 26312400 26185536 26043629 25856784
 2751.8 25743030 25725182 25660834 25686514 25589667 25360372
 2754.7 25278499 25131013 25131393 25597059 25495755 24981801
 2757.6 24880053 25235757 25241760 25512250 25192998 24487889
 2760.5 24472250 24728334 25383686 25783438 25456510 25324832
 2763.4 25309921 25025579 25655728 26772421 26887557 26291848
 2766.3 26026294 26443869 26254117 26530834 27055327 26639450
 2769.2 26219207 26588870 26696466 26206048 26284164 26360800
 2772.1 26385341 27029579 27449248 27291454 27334630 28192388
 2775   28443547 28990698 29261681 29042895 29239259 29513680
 2777.9 29574167 29824157 30168330 30679956 31660796 31876184
 2780.8 31880742 32209102 32847573 33601122 33879271 34210257
 2783.7 34433860 34838382 35170115 35670070 35324163 34884653
 2786.6 36017763 37357528 37274988 36746750 37043194 36821073
 2789.4 37197272 37506032 37653935 38851541 39410473 38789316
 2792.3 37828846 38151947 38976587 39293682 39484885 39899873
 2795.2 40690457 41855981 42357036 42760103 43482672 43645255
 2798.1 44003034 44752193 44619301 44682289 45567683 45976741
 2801   45896029 46130028 46970437 47393682 47230339 48039880
 2803.9 48711695 49347201 50348454 51503228 52564109 52970261
 2806.8 52881042 53192109 53442458 53248957 53023867 53754357
 2809.7 55088531 55746927 57251782 58203680 57922931 58537554
 2812.6 59262686 59379067 59955273 61514778 62802504 63698104
 2815.5 64594037 64933826 65486888 66405150 67255091 67687856
 2818.4 69121595 70491132 71397532 72466771 73783706 74402426
 2821.3 75211363 76834707 78767394 80156738 81512798 82813065
 2824.2 84961802 86449874 87970360 89961553 91831852 93165277
 2827.1 94450897 96470337 99139112 100664072 103026763 105142424
 2829.9 106710251 109096324 111412696 113174961 116222562 119335570
 2832.8 121980644 124515081 127538729 130982610 133862485 137037832
 2835.7 140644226 144818801 148283141 152409241 157766717 162794197
 2838.6 167503015 173039313 179122905 184989447 192720879 200923692
 2841.5 208872188 217148452 226063742 238213096 249963567 259895113
 2844.4 272722303 286875402 301189447 318225464 334893105 350956355
 2847.3 368719622 388185866 407871039 428517776 450691654 470930694
 2850.2 490303995 506898259 522926829 539619335 556114438 571510901
 2853.1 583640917 593032202 604090479 616320637 625132456 629568701
 2856   641163332 652401313 659194375 669801045 681044548 689217363
 2858.9 699040235 701513614 698742830 703856316 708377888 702383446
 2861.8 692527672 685123352 676063197 663111287 650995084 638931141
 2864.7 627270453 614954450 603886965 595615313 587431343 582210293
 2867.5 580496765 580184626 582260604 587008537 595718466 605256292
 2870.4 617283637 633032688 647484751 660761532 676822093 687923230
 2873.3 693242618 700814244 705442684 694427597 681233211 666307713
 2876.2 645166714 622847171 601384738 577342517 552750933 529885488
 2879.1 509778519 488710424 470330208 454942656 442800852 430266567
 2882   417237536 406113520 398266436 390106333 384679773 379850916
 2884.9 373690946 369693620 367057551 365267673 364320890 365376538
 2887.8 366830174 367681498 369164599 369626185 371587256 374369997
 2890.7 378871992 384863395 390726876 393793572 396927372 401363346
 2893.6 407638383 413689595 418178934 422989002 427858936 435008671
 2896.5 442964233 446875213 449619287 453484717 460954973 469497560
 2899.4 475263709 479883357 485550068 492997206 501953522 510569642
 2902.3 515935043 522733089 532866055 539842513 553541524 568555899
 2905.2 575491171 580327936 593052010 607350930 623453331 639114853
 2908   645906329 656308865 674663636 692915509 712716194 728823183
 2910.9 742124569 760525215 791029667 819310792 838532791 861145855
 2913.8 883285059 896559376 912053114 935704156 964221954 969272685
 2916.7 978541583 1007585844 1040243116 1061376289 1084820581 1103959105
 2919.6 1141503812 1161284207 1182064553 1201609199 1208856511 1202610222
 2922.5 1187607811 1201913085 1232968954 1255565747 1244551449 1241181365
 2925.4 1241627655 1233374105 1249465957 1274904995 1285843727 1254918146
 2928.3 1233733692 1203738708 1184299157 1208148512 1229293009 1204400497
 2931.2 1183065104 1177472451 1170493434 1150614930 1124852603 1109876887
 2934.1 1105612346 1086363965 1049789152 1030238405 1019722795 1009180090
 2937   986984565 956134749 929761904 913481229 890324992 864855273
 2939.9 845396803 830789060 812521072 793516212 776588687 763142115
 2942.8 752510736 742145332 735640464 735328457 740824176 738991448
 2945.6 735032880 739600666 748789504 761682639 773477210 788742946
 2948.5 809408111 833646287 864868408 899860596 938348407 961163932
 2951.4 981331577 1008497374 1047772464 1097048631 1117889773 1136814898
 2954.3 1177131212 1227318676 1295431008 1357909445 1349493249 1345487967
 2957.2 1323890666 1313136354 1349382333 1363169240 1370041724 1411661150
 2960.1 1425439714 1383628684 1336076813 1346682488 1339460127 1306298969
 2963   1298526357 1270029950 1225148630 1173663285 1162698306 1138553220
 2965.9 1078581718 1030800649 986536828 939869867 901313960 857439095
 2968.8 814322771 770920916 728444867 688318760 649416814 615351921
 2971.7 581896763 552591029 528160956 506273537 483143112 459415294
 2974.6 437986583 419846432 402505589 386896680 371417966 356356886
 2977.5 341185161 327040861 313820206 301031814 289589475 278565468
 2980.4 267022695 256278305 246183814 236510957 227668496 219125220
 2983.3 212362666 205158061 197930407 191928943 186632673 179827892
 2986.1 172642573 167472660 163169255 158758728 153409528 148262410
 2989   144324016 140184449 135825063 131658200 128493108 125065242
 2991.9 122025906 118442919 115281143 113233273 111517223 108851653
 2994.8 105951539 103104669 100897618 100031375 97998289 94251360
 2997.7 91546920 89992174 88868081 87263132 84647608 82573644
 3000.6 82044889 80221043 78501161 77656314 76100588 74907078
 3003.5 73597576 72316960 70799773 68898024 67551685 67534575
 3006.4 66893496 65283014 63395551 62139077 61930127 60750353
 3009.3 59826558 59511480 58065443 57748657 57755436 56507969
 3012.2 55662894 55498199 54866098 53961855 53077988 52985441
 3015.1 52436703 51191221 50330558 49694237 49493322 49367828
 3018   49056363 48040075 46744832 46589052 46999699 46182706
 3020.9 44949172 43912630 43271268 43463098 43290641 42647531
 3023.7 42462835 42147074 41402131 40603850 40406500 40093319
 3026.6 39837990 39421756 39197774 38551844 37725382 37397517
 3029.5 36627644 36432769 36749873 37397361 37311425 35959503
 3032.4 34894689 34988694 34856689 34560387 34805646 34951410
 3035.3 34153217 33354202 32572318 32887706 33122706 32651371
 3038.2 32759780 32638155 31990103 31299315 31590369 31707827
 3041.1 30957068 30441886 30572270 30147636 29920749 30158675
 3044   30380977 29733252 29219043 28978275 28676171 29033181
 3046.9 28766040 27871265 27899112 28002718 27788789 27098983
 3049.8 27132610 27628217 27192106 26888019 26656136 26550808
 3052.7 26544404 26043098 26285379 26379965 25896781 25610965
 3055.6 25957254 26020466 24618786 23376377 22854387 23177689
 3058.5 23762018 24672315 25007277 24370984 23983456 23425979
 3061.4 23067431 23269262 23453864 22914021 22204907 21954218
 3064.2 21901211 21659283 22096311 22428344 21517350 21244815
 3067.1 22171371 22158289 21231003 20387476 20526444 21132535
 3070   20720549 20572795 21044562 21203957 20750097 19778698
 3072.9 19787033 19594727 19158650 19571418 19655679 19518864
 3075.8 18886131 18712589 19368118 19666709 19491208 19598379
 3078.7 20023846 19267140 18541791 18334087 18074399 18170835
 3081.6 17833318 17319832 17695881 17791759 17373122 16987261
 3084.5 17345408 17453838 17137819 17098413 16622988 16975549
 3087.4 17541302 16930131 16228428 16421590 16581537 16629995
 3090.3 16587769 16557029 16496308 16871467 17095728 16523378
 3093.2 16209043 16110914 16594606 17180217 16976457 16195798
 3096.1 15525480 15261063 14855080 14230717 14268050 14446048
 3099   14993480 15299052 15297180 15857310 16009810 15364995
 3101.8 15567112 15542925 15523578 15182607 15662374 15248454
 3104.7 15078423 14812264 14080921 13377198 13421697 13305395
 3107.6 13806148 15002882 15410548 15731519 15874355 15367496
 3110.5 15583202 15514573 14785069 14754895 14981291 15003396
 3113.4 15527721 14792500 14830938 14829921 14505341 14972039
 3116.3 14846809 14407603 14286592 14188992 14816431 15338957
 3119.2 15440203 15503899 15093342 14524755 14069444 13979026
 3122.1 15124419 15011462 14930139 14742905 14519926 14193759
 3125   13927099 14069620 13370737 12968568 13979173 14403643
 3127.9 13867043 13882591 14107748 14677073 14700347 14479966
 3130.8 14353195 13667083 14195202 14973367 14127115 13769681
 3133.7 15077173 16038970 15208457 14178419 13566250 13785261
 3136.6 14637347 15142369 14573833 14165543 14516162 14789750
 3139.5 14117697 13737428 13913356 13331173 13263417 13206337
 3142.3 13351947 13485362 13706220 14038306 13686082 13506960
 3145.2 14029651 14283954 13807338 13754955 13759648 13755884
 3148.1 14298502 14003911 13814100 13985715 14565923 14376431
 3151   14440646 14826331 14447362 14053766 13788093 13635413
 3153.9 14158666 14444074 14845886 14312011 13233942 13244917
 3156.8 13844575 14649955 14698357 13644138 13068218 13844213
 3159.7 14937705 15078299 13969767 13473194 14708360 14831833
 3162.6 13718590 13474587 13889974 13750722 13493894 13220660
 3165.5 13217266 13792759 13526015 13375608 14045715 13706151
 3168.4 13206457 13622496 14401122 14411640 14445005 14936799
 3171.3 14966900 15122237 14217160 13376655 13323571 13815802
 3174.2 14370318 15046180 14874778 14720046 14831115 13792186
 3177.1 13649935 14642312 15105900 14782513 14382758 14801331
 3179.9 14654110 14353468 13997122 13933430 14037375 14575780
 3182.8 14114809 13976167 14473477 14189907 14757215 15172095
 3185.7 14557634 14280396 14698632 14882384 14775892 14752936
 3188.6 13943219 13680114 14225197 14744778 14919290 14612249
 3191.5 14415895 14522311 14273696 14761016 14910315 14741376
 3194.4 14931300 14772743 14442389 14248563 14126514 13875589
 3197.3 13975634 14539271 14139952 13783791 13856844 13544470
 3200.2 13000263 13552891 14192504 13835165 12799678 12410192
 3203.1 13048143 13294173 13127092 13232645 13238527 12980487
 3206   13291694 13743908 13390391 12528922 12059825 12098414
 3208.9 12173870 11812928 11794472 11792043 11618274 11713319
 3211.8 12042670 11672912 10933667 10777633 10710474 10788541
 3214.7 10971484 11220875 11278536 11142736 10579366 10230164
 3217.6 10312923 10368575 10448249 10402648 9763695 9342376
 3220.4 9724601 9910651 9745123 9573312 9465892 9269834
 3223.3 9395462 9579796 9641416 9013203 8491008 8437602
 3226.2 9176997 9922726 9986868 9343518 8670157 8413421
 3229.1 8700869 8712035 8500734 8610466 8276882 7858140
 3232   7783000 7998544 8016780 8427504 8709416 8598369
 3234.9 8017830 7787784 7282172 7161779 7334881 7764081
 3237.8 8137436 7950583 7378811 7286637 7527075 7647903
 3240.7 7088461 6797041 6952707 7203456 6934513 6579610
 3243.6 6879824 7121331 6764094 7097872 7268277 7130351
 3246.5 7264613 7284179 6792609 6478871 6479238 6151665
 3249.4 6261876 6733956 6762397 6615719 6712761 6741409
 3252.3 7074618 7697377 7404750 6842921 6497692 6572734
 3255.2 6368982 6205596 6194063 6646174 6778803 6055694
 3258   5914870 6398394 6190353 5618656 6061394 6635424
 3260.9 6724284 6412688 6276527 6267801 6583113 6585950
 3263.8 6284167 5928027 5730209 5650329 5903454 6083676
 3266.7 5897352 5976462 6234028 6148468 5884372 5421584
 3269.6 5565832 5687358 5396307 5490792 5640190 5739611
 3272.5 5552111 5440777 5711726 6005290 5873427 5608190
 3275.4 5380566 5452660 5726722 5540417 5257265 5102468
 3278.3 5160206 5346001 5372443 5217156 5046446 5010570
 3281.2 4850726 4844652 5359170 5510198 5243765 5017180
 3284.1 4780838 4681887 4812655 4937149 5031608 5056465
 3287   4745709 4465803 4619051 4783964 4686969 4869842
 3289.9 4870514 4685599 4643576 4801460 4848069 4794623
 3292.8 4643956 4612834 4694985 4620673 4414220 4440598
 3295.7 4474087 4490218 4570050 4626446 4638319 4825249
 3298.5 4891148 4726817 4557865 4485405 4417689 4313174
 3301.4 4330402 4409972 4528888 4600551 4596956 4508385
 3304.3 4503275 4429804 4399978 4500203 4450330 4491329
 3307.2 4497227 4531216 4577847 4486781 4501138 4335400
 3310.1 4156957 4166728 4239515 4244275 4195400 4355733
 3313   4442310 4325802 4184436 4073561 4212214 4257719
 3315.9 4217218 4209896 4129592 4025786 4067732 4175902
 3318.8 4171952 4088295 4197978 4319078 4247957 4156628
 3321.7 4137169 4172963 4220083 4240890 4220340 4167443
 3324.6 4098101 4134154 4213286 4196950 4048170 4022084
 3327.5 4001510 3912888 3952711 3968927 4030921 4054476
 3330.4 4066537 4055441 3998658 4018538 3997230 3950428
 3333.3 3917690 3926157 3959515 3952118 3961709 3995650
 3336.1 3961225 3924011 3920571 3979897 4072731 4073631
 3339   4017846 3982973 3979805 3997655 4008801 4025280
 3341.9 4047115 4071843 4081975 4081711 4090958 4105743
 3344.8 4112454 4119960 4129410 4142049 4156957 4166144
 3347.7 4177206 4196273 4215816 4240620 4266905 4289925
 3350.6 4312333 4332180 4349009 4368254 4388654 4411627
 3353.5 4435784 4459451 4482160 4510569 4538077 4562573
 3356.4 4589330 4614122 4635702 4658863 4685655 4714864
 3359.3 4739584 4757649 4777109 4792457 4803013 4811385
 3362.2 4820435 4826003 4826523 4827973 4825258 4816044
 3365.1 4813224 4809653 4797245 4778060 4763781 4750295
 3368   4730051 4713235 4693454 4670720 4647436 4626970
 3370.9 4603094 4578376 4551210 4524697 4501811 4478715
 3373.8 4454465 4431158 4411047 4394950 4380376 4363795
 3376.6 4347063 4330333 4310260 4291850 4279034 4269334
 3379.5 4259435 4246483 4228806 4213761 4199481 4183464
 3382.4 4167630 4154248 4142463 4132868 4117427 4104402
 3385.3 4095362 4082882 4069456 4056924 4045062 4034797
 3388.2 4025164 4014653 4008851 4004035 3998072 3996474
 3391.1 3992672 3985488 3983395 3977863 3963923 3954859
 3394   3951050 3950432 3945825 3936096 3926884 3926867
 3396.9 3929521 3925949 3924467 3927146 3929383 3928749
 3399.8 3928416 3930523 3929727 3927601 3927549 3927680
 3402.7 3925681 3925277 3923409 3925074 3931363 3936433
 3405.6 3939861 3941367 3945858 3954237 3963332 3977103
 3408.5 3989193 3991582 3992858 3995719 3997164 4000129
 3411.4 4010085 4020654 4024330 4021638 4019561 4013020
 3414.2 4006167 4001601 3995865 3989328 3983969 3975563
 3417.1 3965644 3956758 3947237 3937547 3929372 3928449
 3420   3930208 3917736 3906343 3899987 3889028 3882260
 3422.9 3876317 3869407 3867804 3869782 3866607 3864218
 3425.8 3863301 3862049 3863525 3867991 3864561 3857614
 3428.7 3857219 3856674 3850515 3840374 3829628 3811973
 3431.6 3792282 3771765 3752818 3736826 3722374 3701485
 3434.5 3672588 3644257 3622227 3600468 3578347 3555501
 3437.4 3529761 3506681 3483923 3463333 3446274 3428033
 3440.3 3406941 3386275 3365111 3352275 3342601 3327562
 3443.2 3312426 3296493 3281359 3272420 3259808 3238942
 3446.1 3226105 3238254 3234364 3211851 3197278 3180769
 3449   3166208 3154630 3142506 3127741 3112401 3098527
 3451.9 3086944 3075393 3063094 3051962 3040113 3026040
 3454.7 3012144 2998134 2983636 2971618 2963334 2951744
 3457.6 2937045 2931312 2930741 2926670 2921810 2912621
 3460.5 2903873 2893438 2879077 2872082 2865396 2856195
 3463.4 2854040 2850064 2840215 2831714 2830513 2829946
 3466.3 2830721 2824793 2817598 2815162 2811656 2806991
 3469.2 2803041 2796518 2788902 2782856 2776858 2769954
 3472.1 2767719 2766520 2768342 2767177 2766060 2772102
 3475   2772684 2767297 2762957 2760825 2762576 2764030
 3477.9 2766024 2770088 2772222 2764712 2761201 2761183
 3480.8 2744119 2726337 2726697 2715948 2698089 2686193
 3483.7 2673726 2657268 2640961 2634422 2628525 2618942
 3486.6 2605552 2591001 2588776 2581078 2568504 2559031
 3489.5 2545016 2531262 2528001 2527545 2519730 2511940
 3492.3 2504125 2496394 2494844 2492162 2490135 2489539
 3495.2 2478536 2473304 2481807 2484099 2477976 2472606
 3498.1 2470111 2463295 2459275 2455176 2444888 2443559
 3501   2450467 2448025 2442373 2448985 2451556 2436415
 3503.9 2428760 2424493 2419134 2413852 2409270 2400918
 3506.8 2393782 2389202 2381612 2370696 2378934 2382965
 3509.7 2366259 2358200 2355892 2353969 2350753 2348002
 3512.6 2349809 2350695 2345498 2341703 2342612 2341446
 3515.5 2336096 2332526 2334709 2339375 2334679 2326481
 3518.4 2327495 2328136 2327807 2327126 2323656 2317473
 3521.3 2307594 2303989 2323313 2335912 2331529 2335317
 3524.2 2326156 2314720 2320083 2311346 2298399 2307361
 3527.1 2312023 2304513 2298666 2315721 2321209 2309920
 3529.9 2307906 2313401 2317224 2314401 2312519 2315853
 3532.8 2320154 2322504 2324797 2328865 2331990 2337374
 3535.7 2363891 2375877 2368259 2368074 2372618 2376195
 3538.6 2376749 2379109 2383793 2386489 2395390 2405440
 3541.5 2411644 2420501 2427366 2431723 2431614 2419468
 3544.4 2443898 2481790 2459017 2434956 2468912 2486589
 3547.3 2464903 2467224 2469808 2464325 2464491 2470278
 3550.2 2470953 2462531 2464377 2493922 2492342 2476990
 3553.1 2483864 2491992 2490966 2493198 2493397 2493783
 3556   2498138 2512358 2519760 2519717 2521709 2518865
 3558.9 2511207 2527551 2551483 2555609 2558676 2561219
 3561.8 2568183 2560480 2564254 2588263 2589892 2573197
 3564.7 2555482 2566403 2597893 2642608 2600418 2567241
 3567.6 2657819 2696615 2670729 2664603 2672318 2689707
 3570.4 2700853 2704919 2711358 2715600 2724939 2734096
 3573.3 2739598 2748781 2760339 2768562 2773589 2776027
 3576.2 2788534 2804489 2811952 2816884 2821479 2823530
 3579.1 2834534 2853696 2859659 2865671 2883983 2895839
 3582   2904221 2911643 2931007 2943033 2950474 2965419
 3584.9 2953669 2913507 2969647 3053191 3022962 2972468
 3587.8 3013001 3125692 3102204 3079792 3099235 3121357
 3590.7 3141887 3160725 3165594 3178218 3236179 3266895
 3593.6 3264396 3266742 3317826 3385462 3411444 3441797
 3596.5 3457281 3479534 3541010 3606277 3639237 3678037
 3599.4 3720750 3757619 3832791 3910048 3948188 3997180
 3602.3 4060631 4125416 4173416 4223105 4280209 4331622
 3605.2 4368548 4385194 4437079 4552294 4585198 4561150
 3608   4545890 4665644 4777021 4741031 4737720 4755982
 3610.9 4753205 4746114 4846333 4926933 4885410 4853799
 3613.8 4893803 4947874 4952184 4943282 4930737 4904912
 3616.7 4902367 4978710 4967095 4877687 4874814 5000850
 3619.6 4966987 4906448 4915800 4904807 4882992 4877470
 3622.5 4870887 4866552 4860045 4851342 4845427 4837643
 3625.4 4848850 4875352 4848830 4782341 4780760 4899064
 3628.3 4856705 4915026 5034084 4968302 4952562 4957179
 3631.2 4964828 4976064 4970236 4962820 5028158 5084911
 3634.1 5066929 5064530 5077100 5085615 5088894 5089138
 3637   5082208 5091981 5094704 5082081 5072402 5062342
 3639.9 5043624 5019570 4998628 4985591 4974712 4961497
 3642.8 4937255 4908753 4887118 4872320 4855201 4825089
 3645.7 4790227 4765596 4833393 4910814 4809736 4733361
 3648.5 4861646 4945940 4813935 4804446 4888133 4955126
 3651.4 4926431 4901941 4909350 4917701 4916330 4922772
 3654.3 4922298 4886787 4900521 5054360 5068691 5022252
 3657.2 5012736 5011237 5008951 5017084 5030865 5028355
 3660.1 5015321 5014355 5015187 5018933 5019035 5013684
 3663   5011274 5010571 4998844 4992278 4991287 4984128
 3665.9 4969981 4958543 4933268 4873507 4873129 4978367
 3668.8 4924285 4809043 4814480 5008261 4997540 4912161
 3671.7 4880819 4866135 4842251 4802492 4761701 4799835
 3674.6 4837373 4859860 5001488 4944347 4874228 4874588
 3677.5 4849762 4807407 4806697 4863849 4861508 4835158
 3680.4 4817253 4801761 4786918 4771678 4754270 4732479
 3683.3 4705820 4685969 4665416 4642583 4615557 4583337
 3686.1 4552611 4491917 4394880 4437556 4581185 4498765
 3689   4408039 4361026 4326744 4381315 4443945 4387394
 3691.9 4354098 4347652 4342199 4341495 4349728 4354945
 3694.8 4349645 4347115 4363988 4375191 4369100 4372732
 3697.7 4371459 4357941 4354623 4356742 4343556 4303512
 3700.6 4277540 4368459 4413133 4357026 4342039 4347405
 3703.5 4345029 4343600 4356478 4373486 4385450 4406596
 3706.4 4428939 4435423 4445484 4430715 4442259 4574505
 3709.3 4611809 4561481 4549264 4512008 4546436 4737236
 3712.2 4751311 4683071 4644411 4628617 4652072 4659721
 3715.1 4640735 4631237 4617579 4604642 4582723 4543201
 3718   4531396 4562108 4541364 4511411 4486137 4439780
 3720.9 4395433 4409547 4453928 4432823 4386105 4335112
 3723.8 4299712 4311308 4307611 4246565 4244055 4304344
 3726.6 4279495 4247301 4238698 4221625 4204968 4205464
 3729.5 4211753 4202112 4157520 4123401 4262787 4359753
 3732.4 4282011 4226845 4187679 4218388 4354659 4431077
 3735.3 4350024 4370943 4534296 4509369 4471822 4538339
 3738.2 4581350 4577682 4587056 4602313 4636442 4719599
 3741.1 4773663 4774422 4775562 4741687 4700997 4777679
 3744   5122394 5247106 5140674 5086930 5083612 5097793
 3746.9 5148715 5141301 5064044 5068413 5337805 5383539
 3749.8 5266043 5209823 5154843 5191889 5454277 5456413
 3752.7 5351888 5347136 5351658 5343044 5337410 5312567
 3755.6 5319983 5394114 5399639 5360045 5335115 5304589
 3758.5 5276909 5310896 5385105 5338727 5290375 5266493
 3761.4 5253029 5237457 5215384 5200802 5188449 5164505
 3764.2 5123901 5120101 5202482 5196869 5158085 5142701
 3767.1 5131690 5127954 5104372 5065330 5132460 5236683
 3770   5195091 5156559 5145116 5135120 5125874 5116599
 3772.9 5108484 5096966 5084434 5072675 5060919 5047080
 3775.8 5033893 5014478 4999089 4993508 4966992 4926285
 3778.7 4976005 5040236 4996470 4961177 4952519 4954316
 3781.6 4957622 4958823 4956740 4947249 4958632 5008840
 3784.5 5040438 5052480 5074108 5103712 5128403 5152078
 3787.4 5185078 5222636 5260697 5304835 5343546 5382042
 3790.3 5423092 5460873 5497675 5537398 5572040 5592072
 3793.2 5601578 5612770 5621720 5609858 5576858 5611514
 3796.1 5666206 5610725 5584377 5564237 5519522 5483593
 3799   5446696 5384812 5290253 5272656 5444316 5409840
 3801.9 5301670 5290334 5265005 5215462 5180560 5147630
 3804.7 5117761 5056432 4979387 5046904 5159135 5077782
 3807.6 5015050 4986073 4974960 4961769 4943076 4925445
 3810.5 4917198 4911977 4904399 4888278 4877075 4869439
 3813.4 4868895 4851432 4789313 4750801 4913170 5028938
 3816.3 4938727 4892000 4872234 4868870 4866824 4838287
 3819.2 4806437 4810840 4869295 4885210 4984231 4996732
 3822.1 4924541 4909596 4902125 4899928 4894496 4884565
 3825   4867929 4842369 4884037 4925498 4879278 4850674
 3827.9 4839302 4823949 4802431 4783337 4741617 4681466
 3830.8 4710657 4808669 4759546 4703147 4677086 4633105
 3833.7 4580069 4637764 4719608 4657827 4595900 4530154
 3836.6 4462208 4563004 4726917 4630942 4540566 4520137
 3839.5 4530167 4523796 4589350 4593408 4537568 4498279
 3842.3 4455658 4492924 4570716 4548652 4521340 4505092
 3845.2 4491051 4477975 4466964 4457747 4449182 4435904
 3848.1 4417562 4410056 4421192 4406441 4353833 4268365
 3851   4260326 4442891 4410350 4234531 4195798 4474046
 3853.9 4648128 4485455 4387227 4352142 4321795 4343098
 3856.8 4398386 4395372 4383436 4386657 4392079 4395793
 3859.7 4393742 4368175 4374652 4473248 4508599 4473882
 3862.6 4470242 4459632 4445161 4499506 4665710 4687692
 3865.5 4638771 4642808 4656677 4668350 4661079 4641794
 3868.4 4673084 4722042 4853505 4962408 4905581 4907564
 3871.3 4930681 4940552 4935799 4931409 4987603 5131582
 3874.2 5183277 5156846 5164990 5190562 5225635 5257993
 3877.1 5277116 5294620 5315042 5303864 5284859 5390281
 3880   5496118 5497515 5491664 5474916 5462575 5481742
 3882.8 5514499 5510545 5481212 5415047 5434772 5615124
 3885.7 5629477 5565559 5552937 5545388 5541767 5543653
 3888.6 5544275 5539257 5498608 5460826 5559711 5640184
 3891.5 5592616 5568629 5560327 5558085 5568553 5577605
 3894.4 5574671 5569507 5569721 5574689 5568629 5564853
 3897.3 5555910 5516672 5529539 5686249 5710450 5640103
 3900.2 5585963 5564331 5683164 5774849 5726530 5659314
 3903.1 5652088 5802064 5842443 5774102 5788832 5847880
 3906   5858094 5857435 5868285 5865542 5870986 5875875
 3908.9 5875611 5870657 5865116 5850942 5834296 5818304
 3911.8 5797367 5765532 5737986 5707788 5679498 5639323
 3914.7 5587839 5533595 5481290 5427684 5434523 5411447
 3917.6 5339596 5282233 5216397 5181453 5209818 5190440
 3920.4 5128749 5094992 5075373 5051909 5034458 5033401
 3923.3 5024715 5015121 5045535 5077956 5065093 5058541
 3926.2 5063812 5074967 5087162 5103086 5112311 5139537
 3929.1 5160187 5166027 5185188 5180543 5167061 5221732
 3932   5284129 5268466 5259736 5270758 5275285 5271185
 3934.9 5264393 5264427 5265479 5264951 5261921 5257883
 3937.8 5262971 5259349 5247051 5237325 5229979 5217846
 3940.7 5193650 5149418 5141962 5200671 5204541 5168676
 3943.6 5162400 5166258 5151348 5140279 5134782 5128570
 3946.5 5138268 5163249 5174423 5171862 5153499 5148401
 3949.4 5186426 5205275 5203061 5207995 5211682 5214535
 3952.3 5223376 5227999 5229608 5233750 5237969 5242962
 3955.2 5252956 5265273 5267406 5268266 5276236 5293939
 3958.1 5303852 5304283 5316655 5330813 5332761 5338989
 3960.9 5359203 5382881 5386087 5383923 5392881 5406795
 3963.8 5422837 5432547 5441604 5447248 5452247 5459553
 3966.7 5467846 5471927 5467679 5476426 5488129 5471808
 3969.6 5469754 5484472 5485854 5488874 5501506 5507885
 3972.5 5509182 5520255 5535850 5557410 5581248 5599486
 3975.4 5623485 5646979 5667940 5699486 5734604 5771404
 3978.3 5814995 5859984 5910409 5979088 6049439 6113828
 3981.2 6182880 6261749 6342175 6430312 6508975 6588665
 3984.1 6681611 6780467 6880392 6981918 7080667 7187606
 3987   7311043 7429236 7536288 7620164 7713036 7814234
 3989.9 7896258 8004663 8099316 8178784 8255525 8325867
 3992.8 8381763 8429769 8497410 8575009 8644640 8701122
 3995.7 8706542 8740115 8805653 8853449 8895618 8935606
 3998.5 8957970 8993736 9025759 9053718
##END= 
