s,kW,C,kg/s,m,kW/m2
Time,"HRR","temp","MLR","thick","flux"
 0.000E+000, 0.000E+000, 2.000E+001, 0.000E+000, 1.900E-002,-4.813E-011
 2.012E+000, 0.000E+000, 3.630E+001, 7.251E-022, 1.900E-002, 3.501E+001
 4.003E+000, 0.000E+000, 5.875E+001, 7.479E-020, 1.900E-002, 3.507E+001
 6.004E+000, 0.000E+000, 7.503E+001, 2.075E-018, 1.900E-002, 3.514E+001
 8.007E+000, 0.000E+000, 8.846E+001, 2.772E-017, 1.900E-002, 3.518E+001
 1.001E+001, 0.000E+000, 1.001E+002, 2.341E-016, 1.900E-002, 3.522E+001
 1.202E+001, 0.000E+000, 1.105E+002, 1.427E-015, 1.900E-002, 3.524E+001
 1.401E+001, 0.000E+000, 1.199E+002, 6.809E-015, 1.900E-002, 3.526E+001
 1.600E+001, 0.000E+000, 1.285E+002, 2.694E-014, 1.900E-002, 3.529E+001
 1.801E+001, 0.000E+000, 1.365E+002, 9.251E-014, 1.900E-002, 3.532E+001
 2.001E+001, 0.000E+000, 1.441E+002, 2.828E-013, 1.900E-002, 3.534E+001
 2.201E+001, 9.846E-011, 1.513E+002, 7.855E-013, 1.900E-002, 3.541E+001
 2.400E+001, 1.087E-008, 1.582E+002, 2.010E-012, 1.900E-002, 3.544E+001
 2.601E+001, 5.637E-008, 1.646E+002, 4.813E-012, 1.900E-002, 3.542E+001
 2.801E+001, 1.695E-007, 1.708E+002, 1.090E-011, 1.900E-002, 3.544E+001
 3.000E+001, 4.057E-007, 1.769E+002, 2.343E-011, 1.900E-002, 3.549E+001
 3.201E+001, 8.728E-007, 1.829E+002, 4.835E-011, 1.900E-002, 3.555E+001
 3.401E+001, 1.776E-006, 1.887E+002, 9.610E-011, 1.900E-002, 3.560E+001
 3.600E+001, 3.459E-006, 1.943E+002, 1.843E-010, 1.900E-002, 3.563E+001
 3.801E+001, 6.523E-006, 1.998E+002, 3.440E-010, 1.900E-002, 3.565E+001
 4.000E+001, 1.192E-005, 2.052E+002, 6.252E-010, 1.900E-002, 3.567E+001
 4.200E+001, 2.122E-005, 2.103E+002, 1.109E-009, 1.900E-002, 3.565E+001
 4.400E+001, 3.691E-005, 2.154E+002, 1.924E-009, 1.900E-002, 3.568E+001
 4.601E+001, 6.306E-005, 2.204E+002, 3.281E-009, 1.900E-002, 3.570E+001
 4.801E+001, 1.056E-004, 2.253E+002, 5.490E-009, 1.900E-002, 3.572E+001
 5.000E+001, 1.734E-004, 2.303E+002, 9.008E-009, 1.900E-002, 3.579E+001
 5.200E+001, 2.806E-004, 2.353E+002, 1.456E-008, 1.900E-002, 3.585E+001
 5.400E+001, 4.474E-004, 2.400E+002, 2.321E-008, 1.900E-002, 3.583E+001
 5.600E+001, 7.027E-004, 2.447E+002, 3.646E-008, 1.900E-002, 3.582E+001
 5.801E+001, 1.092E-003, 2.494E+002, 5.660E-008, 1.900E-002, 3.589E+001
 6.001E+001, 1.674E-003, 2.542E+002, 8.680E-008, 1.900E-002, 3.595E+001
 6.201E+001, 2.536E-003, 2.586E+002, 1.314E-007, 1.900E-002, 3.588E+001
 6.400E+001, 3.791E-003, 2.629E+002, 1.964E-007, 1.900E-002, 3.590E+001
 6.601E+001, 5.612E-003, 2.675E+002, 2.906E-007, 1.900E-002, 3.597E+001
 6.801E+001, 8.234E-003, 2.717E+002, 4.261E-007, 1.900E-002, 3.591E+001
 7.001E+001, 1.194E-002, 2.760E+002, 6.180E-007, 1.900E-002, 3.598E+001
 7.201E+001, 1.716E-002, 2.802E+002, 8.875E-007, 1.900E-002, 3.595E+001
 7.400E+001, 2.441E-002, 2.840E+002, 1.262E-006, 1.900E-002, 3.584E+001
 7.601E+001, 3.446E-002, 2.882E+002, 1.782E-006, 1.900E-002, 3.594E+001
 7.800E+001, 4.827E-002, 2.924E+002, 2.495E-006, 1.900E-002, 3.604E+001
 8.000E+001, 6.698E-002, 2.964E+002, 3.462E-006, 1.900E-002, 3.603E+001
 8.201E+001, 9.238E-002, 3.005E+002, 4.772E-006, 1.900E-002, 3.604E+001
 8.401E+001, 1.263E-001, 3.044E+002, 6.519E-006, 1.900E-002, 3.608E+001
 8.601E+001, 1.712E-001, 3.083E+002, 8.833E-006, 1.900E-002, 3.609E+001
 8.801E+001, 2.307E-001, 3.120E+002, 1.191E-005, 1.900E-002, 3.601E+001
 9.000E+001, 3.089E-001, 3.156E+002, 1.596E-005, 1.900E-002, 3.598E+001
 9.201E+001, 4.118E-001, 3.191E+002, 2.124E-005, 1.900E-002, 3.591E+001
 9.400E+001, 5.448E-001, 3.235E+002, 2.812E-005, 1.900E-002, 3.633E+001
 9.600E+001, 7.165E-001, 3.266E+002, 3.694E-005, 1.900E-002, 3.593E+001
 9.801E+001, 9.375E-001, 3.309E+002, 4.837E-005, 1.900E-002, 3.642E+001
 1.000E+002, 1.222E+000, 3.352E+002, 6.297E-005, 1.900E-002, 3.654E+001
 1.020E+002, 1.583E+000, 3.394E+002, 8.158E-005, 1.900E-002, 3.664E+001
 1.040E+002, 2.040E+000, 3.431E+002, 1.052E-004, 1.900E-002, 3.658E+001
 1.060E+002, 2.622E+000, 3.471E+002, 1.350E-004, 1.900E-002, 3.671E+001
 1.080E+002, 3.353E+000, 3.509E+002, 1.726E-004, 1.900E-002, 3.672E+001
 1.100E+002, 4.265E+000, 3.546E+002, 2.199E-004, 1.900E-002, 3.682E+001
 1.120E+002, 5.422E+000, 3.586E+002, 2.793E-004, 1.900E-002, 3.695E+001
 1.140E+002, 6.875E+000, 3.628E+002, 3.540E-004, 1.900E-002, 3.747E+001
 1.160E+002, 8.689E+000, 3.670E+002, 4.476E-004, 1.900E-002, 3.763E+001
 1.180E+002, 1.095E+001, 3.707E+002, 5.641E-004, 1.900E-002, 3.838E+001
 1.200E+002, 1.389E+001, 3.760E+002, 7.152E-004, 1.900E-002, 3.996E+001
 1.220E+002, 1.779E+001, 3.828E+002, 9.164E-004, 1.900E-002, 4.294E+001
 1.240E+002, 2.303E+001, 3.899E+002, 1.188E-003, 1.900E-002, 4.630E+001
 1.260E+002, 3.097E+001, 4.023E+002, 1.599E-003, 1.900E-002, 5.561E+001
 1.280E+002, 4.384E+001, 4.149E+002, 2.286E-003, 1.900E-002, 6.251E+001
 1.300E+002, 6.785E+001, 4.286E+002, 3.556E-003, 1.900E-002, 6.963E+001
 1.320E+002, 1.035E+002, 4.388E+002, 5.429E-003, 1.900E-002, 7.067E+001
 1.340E+002, 1.505E+002, 4.429E+002, 7.962E-003, 1.900E-002, 6.745E+001
 1.360E+002, 2.114E+002, 4.473E+002, 1.109E-002, 1.900E-002, 6.690E+001
 1.380E+002, 2.858E+002, 4.525E+002, 1.493E-002, 1.900E-002, 6.695E+001
 1.400E+002, 3.681E+002, 4.610E+002, 1.939E-002, 1.900E-002, 6.951E+001
 1.420E+002, 4.432E+002, 4.669E+002, 2.334E-002, 1.900E-002, 6.547E+001
 1.440E+002, 5.240E+002, 4.796E+002, 2.732E-002, 1.900E-002, 6.735E+001
 1.460E+002, 5.925E+002, 4.979E+002, 3.081E-002, 1.900E-002, 6.770E+001
 1.480E+002, 6.322E+002, 5.189E+002, 3.286E-002, 1.900E-002, 6.667E+001
 1.500E+002, 6.701E+002, 5.319E+002, 3.423E-002, 1.900E-002, 6.786E+001
 1.520E+002, 6.792E+002, 5.355E+002, 3.479E-002, 1.900E-002, 6.637E+001
 1.540E+002, 6.850E+002, 5.457E+002, 3.580E-002, 1.900E-002, 6.786E+001
 1.560E+002, 7.036E+002, 5.532E+002, 3.572E-002, 1.900E-002, 6.809E+001
 1.580E+002, 7.057E+002, 5.653E+002, 3.623E-002, 1.900E-002, 6.883E+001
 1.600E+002, 6.975E+002, 5.780E+002, 3.587E-002, 1.900E-002, 6.880E+001
 1.620E+002, 6.630E+002, 5.880E+002, 3.421E-002, 1.901E-002, 6.789E+001
 1.640E+002, 6.603E+002, 5.949E+002, 3.324E-002, 1.901E-002, 6.920E+001
 1.660E+002, 6.345E+002, 6.017E+002, 3.259E-002, 1.901E-002, 6.964E+001
 1.680E+002, 6.162E+002, 5.995E+002, 3.188E-002, 1.901E-002, 6.701E+001
 1.700E+002, 6.190E+002, 6.051E+002, 3.199E-002, 1.901E-002, 6.874E+001
 1.720E+002, 6.379E+002, 6.077E+002, 3.222E-002, 1.901E-002, 6.791E+001
 1.740E+002, 6.243E+002, 6.126E+002, 3.215E-002, 1.901E-002, 6.854E+001
 1.760E+002, 6.164E+002, 6.207E+002, 3.147E-002, 1.901E-002, 6.947E+001
 1.780E+002, 5.930E+002, 6.256E+002, 3.069E-002, 1.901E-002, 6.768E+001
 1.800E+002, 5.912E+002, 6.399E+002, 3.020E-002, 1.901E-002, 7.379E+001
 1.820E+002, 5.839E+002, 6.404E+002, 2.989E-002, 1.901E-002, 6.982E+001
 1.840E+002, 5.744E+002, 6.360E+002, 2.957E-002, 1.901E-002, 6.850E+001
 1.860E+002, 5.746E+002, 6.341E+002, 2.943E-002, 1.901E-002, 6.715E+001
 1.880E+002, 5.775E+002, 6.392E+002, 2.943E-002, 1.901E-002, 6.910E+001
 1.900E+002, 5.706E+002, 6.391E+002, 2.942E-002, 1.901E-002, 6.712E+001
 1.920E+002, 5.668E+002, 6.428E+002, 2.912E-002, 1.901E-002, 6.831E+001
 1.940E+002, 5.548E+002, 6.419E+002, 2.851E-002, 1.901E-002, 6.715E+001
 1.960E+002, 5.481E+002, 6.483E+002, 2.800E-002, 1.901E-002, 6.831E+001
 1.980E+002, 5.403E+002, 6.518E+002, 2.757E-002, 1.901E-002, 6.869E+001
 2.000E+002, 5.301E+002, 6.532E+002, 2.728E-002, 1.901E-002, 6.814E+001
 2.020E+002, 5.261E+002, 6.619E+002, 2.699E-002, 1.901E-002, 7.088E+001
 2.040E+002, 5.209E+002, 6.618E+002, 2.656E-002, 1.901E-002, 6.910E+001
 2.060E+002, 5.072E+002, 6.601E+002, 2.620E-002, 1.901E-002, 6.824E+001
 2.080E+002, 5.047E+002, 6.608E+002, 2.583E-002, 1.901E-002, 6.839E+001
 2.100E+002, 5.033E+002, 6.639E+002, 2.534E-002, 1.901E-002, 7.000E+001
 2.120E+002, 4.764E+002, 6.741E+002, 2.485E-002, 1.901E-002, 7.249E+001
 2.140E+002, 4.799E+002, 6.710E+002, 2.437E-002, 1.901E-002, 6.912E+001
 2.160E+002, 4.695E+002, 6.688E+002, 2.398E-002, 1.901E-002, 6.843E+001
 2.180E+002, 4.612E+002, 6.716E+002, 2.368E-002, 1.901E-002, 6.951E+001
 2.200E+002, 4.559E+002, 6.780E+002, 2.336E-002, 1.902E-002, 7.104E+001
 2.220E+002, 4.506E+002, 6.754E+002, 2.304E-002, 1.902E-002, 6.880E+001
 2.240E+002, 4.427E+002, 6.727E+002, 2.262E-002, 1.902E-002, 6.803E+001
 2.260E+002, 4.337E+002, 6.712E+002, 2.216E-002, 1.902E-002, 6.677E+001
 2.280E+002, 4.232E+002, 6.723E+002, 2.170E-002, 1.902E-002, 6.779E+001
 2.300E+002, 4.167E+002, 6.772E+002, 2.130E-002, 1.902E-002, 6.920E+001
 2.320E+002, 4.094E+002, 6.777E+002, 2.089E-002, 1.902E-002, 6.898E+001
 2.340E+002, 3.982E+002, 6.779E+002, 2.046E-002, 1.902E-002, 6.777E+001
 2.360E+002, 3.908E+002, 6.768E+002, 2.008E-002, 1.902E-002, 6.740E+001
 2.380E+002, 3.866E+002, 6.776E+002, 1.975E-002, 1.902E-002, 6.726E+001
 2.400E+002, 3.767E+002, 6.750E+002, 1.943E-002, 1.902E-002, 6.617E+001
 2.420E+002, 3.737E+002, 6.768E+002, 1.907E-002, 1.902E-002, 6.665E+001
 2.440E+002, 3.697E+002, 6.813E+002, 1.873E-002, 1.902E-002, 6.915E+001
 2.460E+002, 3.582E+002, 6.856E+002, 1.840E-002, 1.902E-002, 6.895E+001
 2.480E+002, 3.516E+002, 6.841E+002, 1.807E-002, 1.902E-002, 6.809E+001
 2.500E+002, 3.471E+002, 6.863E+002, 1.772E-002, 1.902E-002, 6.865E+001
 2.520E+002, 3.362E+002, 6.913E+002, 1.737E-002, 1.902E-002, 7.030E+001
 2.540E+002, 3.359E+002, 6.933E+002, 1.704E-002, 1.902E-002, 7.034E+001
 2.560E+002, 3.261E+002, 6.973E+002, 1.672E-002, 1.902E-002, 7.119E+001
 2.580E+002, 3.219E+002, 6.932E+002, 1.645E-002, 1.902E-002, 6.902E+001
 2.600E+002, 3.147E+002, 6.915E+002, 1.619E-002, 1.902E-002, 6.825E+001
 2.620E+002, 3.131E+002, 6.924E+002, 1.593E-002, 1.902E-002, 6.902E+001
 2.640E+002, 3.046E+002, 7.014E+002, 1.565E-002, 1.902E-002, 7.270E+001
 2.660E+002, 2.994E+002, 6.947E+002, 1.537E-002, 1.902E-002, 6.748E+001
 2.680E+002, 2.942E+002, 6.973E+002, 1.505E-002, 1.902E-002, 7.014E+001
 2.700E+002, 2.859E+002, 6.958E+002, 1.473E-002, 1.902E-002, 6.756E+001
 2.720E+002, 2.837E+002, 6.954E+002, 1.443E-002, 1.902E-002, 6.900E+001
 2.740E+002, 2.745E+002, 6.994E+002, 1.413E-002, 1.902E-002, 6.963E+001
 2.760E+002, 2.733E+002, 6.984E+002, 1.386E-002, 1.902E-002, 6.962E+001
 2.780E+002, 2.648E+002, 7.058E+002, 1.359E-002, 1.902E-002, 7.128E+001
 2.800E+002, 2.590E+002, 7.023E+002, 1.333E-002, 1.902E-002, 6.984E+001
 2.820E+002, 2.551E+002, 7.033E+002, 1.305E-002, 1.902E-002, 6.997E+001
 2.840E+002, 2.495E+002, 7.076E+002, 1.275E-002, 1.903E-002, 7.043E+001
 2.860E+002, 2.420E+002, 7.053E+002, 1.242E-002, 1.903E-002, 6.994E+001
 2.880E+002, 2.383E+002, 7.031E+002, 1.208E-002, 1.903E-002, 6.915E+001
 2.900E+002, 2.276E+002, 7.075E+002, 1.174E-002, 1.903E-002, 7.135E+001
 2.920E+002, 2.229E+002, 7.052E+002, 1.140E-002, 1.903E-002, 6.815E+001
 2.940E+002, 2.173E+002, 7.033E+002, 1.107E-002, 1.903E-002, 6.874E+001
 2.960E+002, 2.101E+002, 7.087E+002, 1.072E-002, 1.903E-002, 7.005E+001
 2.980E+002, 2.020E+002, 7.106E+002, 1.036E-002, 1.903E-002, 7.156E+001
 3.000E+002, 1.940E+002, 7.052E+002, 9.966E-003, 1.903E-002, 6.677E+001
