m,kW/m2,C
Height,Flux,Temp
 1.0000000E-002, 2.8219413E+001, 4.5076202E+002
 3.0000000E-002, 3.5422800E+001, 5.1481579E+002
 5.0000000E-002, 4.2163415E+001, 5.6150214E+002
 7.0000000E-002, 4.7057174E+001, 5.9084038E+002
 9.0000000E-002, 5.0229803E+001, 6.0794217E+002
 1.1000000E-001, 5.2232309E+001, 6.1789865E+002
 1.3000000E-001, 5.3590860E+001, 6.2403588E+002
 1.5000000E-001, 5.4614003E+001, 6.2840662E+002
 1.7000000E-001, 5.5437174E+001, 6.3183816E+002
 1.9000000E-001, 5.6067169E+001, 6.3442197E+002
 2.1000000E-001, 5.6474527E+001, 6.3599588E+002
 2.3000000E-001, 5.6687564E+001, 6.3661404E+002
 2.5000000E-001, 5.6705652E+001, 6.3625015E+002
 2.7000000E-001, 5.6517897E+001, 6.3483845E+002
 2.9000000E-001, 5.6143486E+001, 6.3250562E+002
 3.1000000E-001, 5.5632075E+001, 6.2945300E+002
 3.3000000E-001, 5.4999669E+001, 6.2579639E+002
 3.5000000E-001, 5.4251450E+001, 6.2149225E+002
 3.7000000E-001, 5.3358577E+001, 6.1637631E+002
 3.9000000E-001, 5.2383779E+001, 6.1077847E+002
 4.1000000E-001, 5.1355885E+001, 6.0476120E+002
 4.3000000E-001, 5.0275854E+001, 5.9833881E+002
 4.5000000E-001, 4.9120442E+001, 5.9141521E+002
 4.7000000E-001, 4.7907220E+001, 5.8407067E+002
 4.9000000E-001, 4.6635604E+001, 5.7624459E+002
 5.1000000E-001, 4.5308361E+001, 5.6793924E+002
 5.3000000E-001, 4.3956070E+001, 5.5922957E+002
 5.5000000E-001, 4.2585146E+001, 5.5021144E+002
 5.7000000E-001, 4.1195068E+001, 5.4085181E+002
 5.9000000E-001, 3.9778315E+001, 5.3111564E+002
 6.1000000E-001, 3.8359680E+001, 5.2108451E+002
 6.3000000E-001, 3.6937863E+001, 5.1068377E+002
 6.5000000E-001, 3.5492447E+001, 4.9984283E+002
 6.7000000E-001, 3.4049726E+001, 4.8866210E+002
 6.9000000E-001, 3.2627403E+001, 4.7721645E+002
 7.1000000E-001, 3.1235769E+001, 4.6565771E+002
 7.3000000E-001, 2.9869175E+001, 4.5393892E+002
 7.5000000E-001, 2.8536552E+001, 4.4207940E+002
 7.7000000E-001, 2.7251534E+001, 4.3017393E+002
 7.9000000E-001, 2.5991617E+001, 4.1816094E+002
 8.1000000E-001, 2.4763151E+001, 4.0611835E+002
 8.3000000E-001, 2.3564021E+001, 3.9396452E+002
 8.5000000E-001, 2.2401288E+001, 3.8175496E+002
 8.7000000E-001, 2.1291091E+001, 3.6974163E+002
 8.9000000E-001, 2.0235135E+001, 3.5790889E+002
 9.1000000E-001, 1.9231320E+001, 3.4621517E+002
 9.3000000E-001, 1.8269013E+001, 3.3465337E+002
 9.5000000E-001, 1.7355773E+001, 3.2329559E+002
 9.7000000E-001, 1.6475452E+001, 3.1206386E+002
 9.9000000E-001, 1.5626535E+001, 3.0096402E+002
 1.0100000E+000, 1.4811649E+001, 2.8994487E+002
 1.0300000E+000, 1.4046428E+001, 2.7926550E+002
 1.0500000E+000, 1.3322931E+001, 2.6887296E+002
 1.0700000E+000, 1.2632910E+001, 2.5870891E+002
 1.0900000E+000, 1.1972571E+001, 2.4879403E+002
 1.1100000E+000, 1.1355461E+001, 2.3926433E+002
 1.1300000E+000, 1.0760372E+001, 2.2993047E+002
 1.1500000E+000, 1.0200856E+001, 2.2097467E+002
 1.1700000E+000, 9.6747365E+000, 2.1233209E+002
 1.1900000E+000, 9.1775563E+000, 2.0408835E+002
 1.2100000E+000, 8.7118792E+000, 1.9623789E+002
 1.2300000E+000, 8.2737835E+000, 1.8873177E+002
 1.2500000E+000, 7.8689951E+000, 1.8163254E+002
 1.2700000E+000, 7.4924334E+000, 1.7490570E+002
 1.2900000E+000, 7.1354034E+000, 1.6851245E+002
 1.3100000E+000, 6.7985008E+000, 1.6243906E+002
 1.3300000E+000, 6.4829893E+000, 1.5667452E+002
 1.3500000E+000, 6.1918884E+000, 1.5124553E+002
 1.3700000E+000, 5.9197359E+000, 1.4612690E+002
 1.3900000E+000, 5.6637370E+000, 1.4130858E+002
 1.4100000E+000, 5.4261980E+000, 1.3679889E+002
 1.4300000E+000, 5.2043607E+000, 1.3253262E+002
 1.4500000E+000, 4.9980303E+000, 1.2852291E+002
 1.4700000E+000, 4.8041657E+000, 1.2471194E+002
 1.4900000E+000, 4.6203321E+000, 1.2108260E+002
 1.5100000E+000, 4.4452995E+000, 1.1762138E+002
 1.5300000E+000, 4.2838619E+000, 1.1438568E+002
 1.5500000E+000, 4.1309380E+000, 1.1130384E+002
 1.5700000E+000, 3.9861467E+000, 1.0838285E+002
 1.5900000E+000, 3.8481106E+000, 1.0558566E+002
 1.6100000E+000, 3.7162533E+000, 1.0291335E+002
 1.6300000E+000, 3.5918107E+000, 1.0037644E+002
 1.6500000E+000, 3.4758134E+000, 9.7990384E+001
 1.6700000E+000, 3.3680248E+000, 9.5755825E+001
 1.6900000E+000, 3.2665450E+000, 9.3643874E+001
 1.7100000E+000, 3.1722034E+000, 9.1656283E+001
 1.7300000E+000, 3.0835113E+000, 8.9769088E+001
 1.7500000E+000, 3.0005107E+000, 8.7979878E+001
 1.7700000E+000, 2.9218602E+000, 8.6273067E+001
 1.7900000E+000, 2.8474411E+000, 8.4649594E+001
 1.8100000E+000, 2.7768680E+000, 8.3103952E+001
 1.8300000E+000, 2.7103992E+000, 8.1655245E+001
 1.8500000E+000, 2.6474349E+000, 8.0281383E+001
 1.8700000E+000, 2.5878189E+000, 7.8984658E+001
 1.8900000E+000, 2.5305442E+000, 7.7750257E+001
 1.9100000E+000, 2.4754445E+000, 7.6564327E+001
 1.9300000E+000, 2.4225674E+000, 7.5433160E+001
 1.9500000E+000, 2.3722264E+000, 7.4358754E+001
 1.9700000E+000, 2.3236943E+000, 7.3323037E+001
 1.9900000E+000, 2.2775530E+000, 7.2318987E+001
 2.0100000E+000, 2.2343173E+000, 7.1361167E+001
 2.0300000E+000, 2.1924873E+000, 7.0436041E+001
 2.0500000E+000, 2.1527223E+000, 6.9544470E+001
 2.0700000E+000, 2.1150885E+000, 6.8699833E+001
 2.0900000E+000, 2.0793143E+000, 6.7895912E+001
 2.1100000E+000, 2.0456646E+000, 6.7122503E+001
 2.1300000E+000, 2.0132462E+000, 6.6373856E+001
 2.1500000E+000, 1.9811368E+000, 6.5641207E+001
 2.1700000E+000, 1.9498766E+000, 6.4931263E+001
 2.1900000E+000, 1.9192102E+000, 6.4244505E+001
 2.2100000E+000, 1.8891525E+000, 6.3571928E+001
 2.2300000E+000, 1.8602333E+000, 6.2923699E+001
 2.2500000E+000, 1.8327428E+000, 6.2305715E+001
 2.2700000E+000, 1.8055604E+000, 6.1704358E+001
 2.2900000E+000, 1.7789867E+000, 6.1118622E+001
 2.3100000E+000, 1.7526018E+000, 6.0543311E+001
 2.3300000E+000, 1.7249043E+000, 5.9942332E+001
 2.3500000E+000, 1.6964833E+000, 5.9318054E+001
 2.3700000E+000, 1.6659374E+000, 5.8653969E+001
 2.3900000E+000, 1.6351639E+000, 5.7980320E+001
 2.4100000E+000, 1.6017775E+000, 5.7270178E+001
 2.4300000E+000, 1.5778466E+000, 5.6788123E+001
