m,kW/m2,C
Height,Flux,Temp
 1.000E-02, 2.356E+01, 4.148E+02
 3.000E-02, 3.375E+01, 5.057E+02
 5.000E-02, 3.854E+01, 5.403E+02
 7.000E-02, 3.978E+01, 5.480E+02
 9.000E-02, 3.906E+01, 5.425E+02
 1.100E-01, 3.737E+01, 5.304E+02
 1.300E-01, 3.530E+01, 5.152E+02
 1.500E-01, 3.312E+01, 4.986E+02
 1.700E-01, 3.099E+01, 4.817E+02
 1.900E-01, 2.898E+01, 4.648E+02
 2.100E-01, 2.710E+01, 4.483E+02
 2.300E-01, 2.537E+01, 4.320E+02
 2.500E-01, 2.372E+01, 4.157E+02
 2.700E-01, 2.217E+01, 3.995E+02
 2.900E-01, 2.069E+01, 3.832E+02
 3.100E-01, 1.926E+01, 3.667E+02
 3.300E-01, 1.789E+01, 3.502E+02
 3.500E-01, 1.658E+01, 3.337E+02
 3.700E-01, 1.533E+01, 3.174E+02
 3.900E-01, 1.416E+01, 3.014E+02
 4.100E-01, 1.308E+01, 2.858E+02
 4.300E-01, 1.208E+01, 2.707E+02
 4.500E-01, 1.114E+01, 2.560E+02
 4.700E-01, 1.027E+01, 2.417E+02
 4.900E-01, 9.462E+00, 2.280E+02
 5.100E-01, 8.725E+00, 2.151E+02
 5.300E-01, 8.044E+00, 2.027E+02
 5.500E-01, 7.423E+00, 1.909E+02
 5.700E-01, 6.851E+00, 1.797E+02
 5.900E-01, 6.327E+00, 1.692E+02
 6.100E-01, 5.853E+00, 1.595E+02
 6.300E-01, 5.421E+00, 1.503E+02
 6.500E-01, 5.029E+00, 1.419E+02
 6.700E-01, 4.672E+00, 1.340E+02
 6.900E-01, 4.347E+00, 1.267E+02
 7.100E-01, 4.046E+00, 1.199E+02
 7.300E-01, 3.771E+00, 1.136E+02
 7.500E-01, 3.514E+00, 1.076E+02
 7.700E-01, 3.280E+00, 1.022E+02
 7.900E-01, 3.063E+00, 9.712E+01
 8.100E-01, 2.864E+00, 9.245E+01
 8.300E-01, 2.682E+00, 8.812E+01
 8.500E-01, 2.516E+00, 8.414E+01
 8.700E-01, 2.365E+00, 8.049E+01
 8.900E-01, 2.228E+00, 7.713E+01
 9.100E-01, 2.103E+00, 7.404E+01
 9.300E-01, 1.987E+00, 7.118E+01
 9.500E-01, 1.881E+00, 6.855E+01
 9.700E-01, 1.784E+00, 6.614E+01
 9.900E-01, 1.695E+00, 6.394E+01
 1.010E+00, 1.614E+00, 6.192E+01
 1.030E+00, 1.540E+00, 6.008E+01
 1.050E+00, 1.473E+00, 5.840E+01
 1.070E+00, 1.411E+00, 5.687E+01
 1.090E+00, 1.355E+00, 5.545E+01
 1.110E+00, 1.303E+00, 5.413E+01
 1.130E+00, 1.255E+00, 5.293E+01
 1.150E+00, 1.211E+00, 5.182E+01
 1.170E+00, 1.171E+00, 5.080E+01
 1.190E+00, 1.133E+00, 4.984E+01
 1.210E+00, 1.099E+00, 4.896E+01
 1.230E+00, 1.065E+00, 4.811E+01
 1.250E+00, 1.035E+00, 4.732E+01
 1.270E+00, 1.005E+00, 4.657E+01
 1.290E+00, 9.776E-01, 4.585E+01
 1.310E+00, 9.508E-01, 4.516E+01
 1.330E+00, 9.255E-01, 4.450E+01
 1.350E+00, 9.011E-01, 4.387E+01
 1.370E+00, 8.784E-01, 4.327E+01
 1.390E+00, 8.567E-01, 4.270E+01
 1.410E+00, 8.364E-01, 4.216E+01
 1.430E+00, 8.170E-01, 4.165E+01
 1.450E+00, 7.983E-01, 4.117E+01
 1.470E+00, 7.802E-01, 4.071E+01
 1.490E+00, 7.630E-01, 4.027E+01
 1.510E+00, 7.464E-01, 3.984E+01
 1.530E+00, 7.305E-01, 3.943E+01
 1.550E+00, 7.154E-01, 3.904E+01
 1.570E+00, 7.013E-01, 3.867E+01
 1.590E+00, 6.879E-01, 3.832E+01
 1.610E+00, 6.752E-01, 3.799E+01
 1.630E+00, 6.630E-01, 3.767E+01
 1.650E+00, 6.514E-01, 3.736E+01
 1.670E+00, 6.403E-01, 3.706E+01
 1.690E+00, 6.295E-01, 3.677E+01
 1.710E+00, 6.191E-01, 3.650E+01
 1.730E+00, 6.089E-01, 3.623E+01
 1.750E+00, 5.991E-01, 3.596E+01
 1.770E+00, 5.896E-01, 3.571E+01
 1.790E+00, 5.804E-01, 3.547E+01
 1.810E+00, 5.715E-01, 3.523E+01
 1.830E+00, 5.629E-01, 3.501E+01
 1.850E+00, 5.543E-01, 3.479E+01
 1.870E+00, 5.461E-01, 3.458E+01
 1.890E+00, 5.380E-01, 3.437E+01
 1.910E+00, 5.303E-01, 3.417E+01
 1.930E+00, 5.227E-01, 3.398E+01
 1.950E+00, 5.155E-01, 3.380E+01
 1.970E+00, 5.083E-01, 3.362E+01
 1.990E+00, 5.013E-01, 3.344E+01
 2.010E+00, 4.942E-01, 3.327E+01
 2.030E+00, 4.873E-01, 3.309E+01
 2.050E+00, 4.806E-01, 3.292E+01
 2.070E+00, 4.741E-01, 3.275E+01
 2.090E+00, 4.679E-01, 3.259E+01
 2.110E+00, 4.619E-01, 3.243E+01
 2.130E+00, 4.561E-01, 3.228E+01
 2.150E+00, 4.504E-01, 3.213E+01
 2.170E+00, 4.448E-01, 3.198E+01
 2.190E+00, 4.394E-01, 3.184E+01
 2.210E+00, 4.340E-01, 3.170E+01
 2.230E+00, 4.287E-01, 3.156E+01
 2.250E+00, 4.234E-01, 3.142E+01
 2.270E+00, 4.182E-01, 3.128E+01
 2.290E+00, 4.128E-01, 3.114E+01
 2.310E+00, 4.075E-01, 3.100E+01
 2.330E+00, 4.017E-01, 3.085E+01
 2.350E+00, 3.958E-01, 3.069E+01
 2.370E+00, 3.890E-01, 3.052E+01
 2.390E+00, 3.821E-01, 3.035E+01
 2.410E+00, 3.742E-01, 3.016E+01
 2.430E+00, 3.690E-01, 3.004E+01
