m,kW/m2,C
Height,Flux,Temp
 1.000E-02, 2.254E+01, 3.998E+02
 3.000E-02, 3.196E+01, 4.865E+02
 5.000E-02, 3.690E+01, 5.223E+02
 7.000E-02, 3.862E+01, 5.324E+02
 9.000E-02, 3.834E+01, 5.287E+02
 1.100E-01, 3.707E+01, 5.185E+02
 1.300E-01, 3.542E+01, 5.057E+02
 1.500E-01, 3.369E+01, 4.920E+02
 1.700E-01, 3.199E+01, 4.783E+02
 1.900E-01, 3.037E+01, 4.647E+02
 2.100E-01, 2.876E+01, 4.509E+02
 2.300E-01, 2.717E+01, 4.368E+02
 2.500E-01, 2.564E+01, 4.227E+02
 2.700E-01, 2.410E+01, 4.079E+02
 2.900E-01, 2.258E+01, 3.925E+02
 3.100E-01, 2.108E+01, 3.769E+02
 3.300E-01, 1.963E+01, 3.609E+02
 3.500E-01, 1.824E+01, 3.449E+02
 3.700E-01, 1.691E+01, 3.288E+02
 3.900E-01, 1.563E+01, 3.127E+02
 4.100E-01, 1.444E+01, 2.970E+02
 4.300E-01, 1.332E+01, 2.816E+02
 4.500E-01, 1.227E+01, 2.667E+02
 4.700E-01, 1.131E+01, 2.523E+02
 4.900E-01, 1.042E+01, 2.384E+02
 5.100E-01, 9.598E+00, 2.250E+02
 5.300E-01, 8.849E+00, 2.123E+02
 5.500E-01, 8.154E+00, 2.001E+02
 5.700E-01, 7.517E+00, 1.886E+02
 5.900E-01, 6.925E+00, 1.776E+02
 6.100E-01, 6.381E+00, 1.673E+02
 6.300E-01, 5.882E+00, 1.575E+02
 6.500E-01, 5.424E+00, 1.483E+02
 6.700E-01, 5.008E+00, 1.397E+02
 6.900E-01, 4.626E+00, 1.318E+02
 7.100E-01, 4.272E+00, 1.243E+02
 7.300E-01, 3.945E+00, 1.174E+02
 7.500E-01, 3.645E+00, 1.108E+02
 7.700E-01, 3.373E+00, 1.048E+02
 7.900E-01, 3.123E+00, 9.926E+01
 8.100E-01, 2.897E+00, 9.412E+01
 8.300E-01, 2.689E+00, 8.935E+01
 8.500E-01, 2.501E+00, 8.494E+01
 8.700E-01, 2.327E+00, 8.084E+01
 8.900E-01, 2.169E+00, 7.707E+01
 9.100E-01, 2.024E+00, 7.359E+01
 9.300E-01, 1.893E+00, 7.041E+01
 9.500E-01, 1.772E+00, 6.749E+01
 9.700E-01, 1.665E+00, 6.485E+01
 9.900E-01, 1.567E+00, 6.242E+01
 1.010E+00, 1.478E+00, 6.019E+01
 1.030E+00, 1.398E+00, 5.814E+01
 1.050E+00, 1.324E+00, 5.626E+01
 1.070E+00, 1.256E+00, 5.453E+01
 1.090E+00, 1.194E+00, 5.295E+01
 1.110E+00, 1.139E+00, 5.150E+01
 1.130E+00, 1.089E+00, 5.016E+01
 1.150E+00, 1.042E+00, 4.892E+01
 1.170E+00, 9.986E-01, 4.778E+01
 1.190E+00, 9.584E-01, 4.672E+01
 1.210E+00, 9.215E-01, 4.574E+01
 1.230E+00, 8.874E-01, 4.484E+01
 1.250E+00, 8.558E-01, 4.399E+01
 1.270E+00, 8.264E-01, 4.321E+01
 1.290E+00, 7.987E-01, 4.245E+01
 1.310E+00, 7.726E-01, 4.175E+01
 1.330E+00, 7.481E-01, 4.108E+01
 1.350E+00, 7.251E-01, 4.046E+01
 1.370E+00, 7.033E-01, 3.986E+01
 1.390E+00, 6.830E-01, 3.930E+01
 1.410E+00, 6.639E-01, 3.876E+01
 1.430E+00, 6.460E-01, 3.826E+01
 1.450E+00, 6.290E-01, 3.778E+01
 1.470E+00, 6.127E-01, 3.732E+01
 1.490E+00, 5.971E-01, 3.688E+01
 1.510E+00, 5.821E-01, 3.646E+01
 1.530E+00, 5.676E-01, 3.606E+01
 1.550E+00, 5.538E-01, 3.568E+01
 1.570E+00, 5.407E-01, 3.532E+01
 1.590E+00, 5.283E-01, 3.497E+01
 1.610E+00, 5.163E-01, 3.464E+01
 1.630E+00, 5.047E-01, 3.431E+01
 1.650E+00, 4.935E-01, 3.400E+01
 1.670E+00, 4.826E-01, 3.370E+01
 1.690E+00, 4.722E-01, 3.342E+01
 1.710E+00, 4.621E-01, 3.314E+01
 1.730E+00, 4.524E-01, 3.288E+01
 1.750E+00, 4.432E-01, 3.263E+01
 1.770E+00, 4.343E-01, 3.239E+01
 1.790E+00, 4.258E-01, 3.215E+01
 1.810E+00, 4.176E-01, 3.193E+01
 1.830E+00, 4.096E-01, 3.171E+01
 1.850E+00, 4.018E-01, 3.149E+01
 1.870E+00, 3.944E-01, 3.129E+01
 1.890E+00, 3.869E-01, 3.109E+01
 1.910E+00, 3.799E-01, 3.089E+01
 1.930E+00, 3.727E-01, 3.070E+01
 1.950E+00, 3.658E-01, 3.052E+01
 1.970E+00, 3.588E-01, 3.033E+01
 1.990E+00, 3.522E-01, 3.016E+01
 2.010E+00, 3.457E-01, 2.999E+01
 2.030E+00, 3.395E-01, 2.982E+01
 2.050E+00, 3.334E-01, 2.966E+01
 2.070E+00, 3.275E-01, 2.950E+01
 2.090E+00, 3.218E-01, 2.935E+01
 2.110E+00, 3.162E-01, 2.920E+01
 2.130E+00, 3.108E-01, 2.906E+01
 2.150E+00, 3.054E-01, 2.891E+01
 2.170E+00, 3.005E-01, 2.878E+01
 2.190E+00, 2.957E-01, 2.865E+01
 2.210E+00, 2.913E-01, 2.853E+01
 2.230E+00, 2.868E-01, 2.840E+01
 2.250E+00, 2.825E-01, 2.829E+01
 2.270E+00, 2.783E-01, 2.817E+01
 2.290E+00, 2.742E-01, 2.806E+01
 2.310E+00, 2.702E-01, 2.794E+01
 2.330E+00, 2.662E-01, 2.784E+01
 2.350E+00, 2.621E-01, 2.772E+01
 2.370E+00, 2.580E-01, 2.761E+01
 2.390E+00, 2.538E-01, 2.749E+01
 2.410E+00, 2.494E-01, 2.737E+01
 2.430E+00, 2.474E-01, 2.731E+01
