m,kW/m2,C
Height,Flux,Temp
 1.000E-02, 2.173E+01, 3.852E+02
 3.000E-02, 2.867E+01, 4.557E+02
 5.000E-02, 3.448E+01, 5.038E+02
 7.000E-02, 3.907E+01, 5.361E+02
 9.000E-02, 4.213E+01, 5.553E+02
 1.100E-01, 4.395E+01, 5.660E+02
 1.300E-01, 4.498E+01, 5.717E+02
 1.500E-01, 4.554E+01, 5.746E+02
 1.700E-01, 4.584E+01, 5.759E+02
 1.900E-01, 4.596E+01, 5.764E+02
 2.100E-01, 4.592E+01, 5.759E+02
 2.300E-01, 4.571E+01, 5.745E+02
 2.500E-01, 4.538E+01, 5.724E+02
 2.700E-01, 4.492E+01, 5.695E+02
 2.900E-01, 4.432E+01, 5.658E+02
 3.100E-01, 4.359E+01, 5.612E+02
 3.300E-01, 4.273E+01, 5.558E+02
 3.500E-01, 4.175E+01, 5.497E+02
 3.700E-01, 4.070E+01, 5.428E+02
 3.900E-01, 3.957E+01, 5.353E+02
 4.100E-01, 3.836E+01, 5.271E+02
 4.300E-01, 3.708E+01, 5.183E+02
 4.500E-01, 3.574E+01, 5.088E+02
 4.700E-01, 3.438E+01, 4.988E+02
 4.900E-01, 3.300E+01, 4.883E+02
 5.100E-01, 3.160E+01, 4.773E+02
 5.300E-01, 3.020E+01, 4.659E+02
 5.500E-01, 2.881E+01, 4.541E+02
 5.700E-01, 2.743E+01, 4.420E+02
 5.900E-01, 2.608E+01, 4.296E+02
 6.100E-01, 2.475E+01, 4.170E+02
 6.300E-01, 2.347E+01, 4.042E+02
 6.500E-01, 2.221E+01, 3.913E+02
 6.700E-01, 2.100E+01, 3.782E+02
 6.900E-01, 1.984E+01, 3.651E+02
 7.100E-01, 1.873E+01, 3.521E+02
 7.300E-01, 1.766E+01, 3.391E+02
 7.500E-01, 1.663E+01, 3.263E+02
 7.700E-01, 1.565E+01, 3.135E+02
 7.900E-01, 1.471E+01, 3.008E+02
 8.100E-01, 1.381E+01, 2.883E+02
 8.300E-01, 1.296E+01, 2.758E+02
 8.500E-01, 1.215E+01, 2.635E+02
 8.700E-01, 1.138E+01, 2.515E+02
 8.900E-01, 1.065E+01, 2.398E+02
 9.100E-01, 9.972E+00, 2.285E+02
 9.300E-01, 9.335E+00, 2.176E+02
 9.500E-01, 8.739E+00, 2.071E+02
 9.700E-01, 8.180E+00, 1.971E+02
 9.900E-01, 7.658E+00, 1.875E+02
 1.010E+00, 7.166E+00, 1.783E+02
 1.030E+00, 6.707E+00, 1.696E+02
 1.050E+00, 6.284E+00, 1.614E+02
 1.070E+00, 5.892E+00, 1.536E+02
 1.090E+00, 5.528E+00, 1.463E+02
 1.110E+00, 5.192E+00, 1.394E+02
 1.130E+00, 4.879E+00, 1.330E+02
 1.150E+00, 4.589E+00, 1.270E+02
 1.170E+00, 4.315E+00, 1.213E+02
 1.190E+00, 4.060E+00, 1.159E+02
 1.210E+00, 3.826E+00, 1.109E+02
 1.230E+00, 3.611E+00, 1.063E+02
 1.250E+00, 3.412E+00, 1.020E+02
 1.270E+00, 3.228E+00, 9.795E+01
 1.290E+00, 3.056E+00, 9.419E+01
 1.310E+00, 2.898E+00, 9.069E+01
 1.330E+00, 2.752E+00, 8.743E+01
 1.350E+00, 2.618E+00, 8.442E+01
 1.370E+00, 2.495E+00, 8.163E+01
 1.390E+00, 2.383E+00, 7.905E+01
 1.410E+00, 2.279E+00, 7.666E+01
 1.430E+00, 2.182E+00, 7.443E+01
 1.450E+00, 2.092E+00, 7.237E+01
 1.470E+00, 2.008E+00, 7.046E+01
 1.490E+00, 1.932E+00, 6.868E+01
 1.510E+00, 1.861E+00, 6.703E+01
 1.530E+00, 1.795E+00, 6.550E+01
 1.550E+00, 1.735E+00, 6.410E+01
 1.570E+00, 1.680E+00, 6.279E+01
 1.590E+00, 1.629E+00, 6.158E+01
 1.610E+00, 1.581E+00, 6.045E+01
 1.630E+00, 1.537E+00, 5.940E+01
 1.650E+00, 1.496E+00, 5.841E+01
 1.670E+00, 1.458E+00, 5.749E+01
 1.690E+00, 1.422E+00, 5.662E+01
 1.710E+00, 1.388E+00, 5.580E+01
 1.730E+00, 1.355E+00, 5.501E+01
 1.750E+00, 1.325E+00, 5.427E+01
 1.770E+00, 1.295E+00, 5.356E+01
 1.790E+00, 1.268E+00, 5.289E+01
 1.810E+00, 1.241E+00, 5.224E+01
 1.830E+00, 1.216E+00, 5.163E+01
 1.850E+00, 1.192E+00, 5.104E+01
 1.870E+00, 1.170E+00, 5.049E+01
 1.890E+00, 1.148E+00, 4.995E+01
 1.910E+00, 1.128E+00, 4.944E+01
 1.930E+00, 1.108E+00, 4.895E+01
 1.950E+00, 1.089E+00, 4.848E+01
 1.970E+00, 1.071E+00, 4.803E+01
 1.990E+00, 1.054E+00, 4.760E+01
 2.010E+00, 1.037E+00, 4.718E+01
 2.030E+00, 1.020E+00, 4.679E+01
 2.050E+00, 1.005E+00, 4.640E+01
 2.070E+00, 9.901E-01, 4.604E+01
 2.090E+00, 9.758E-01, 4.569E+01
 2.110E+00, 9.618E-01, 4.534E+01
 2.130E+00, 9.479E-01, 4.501E+01
 2.150E+00, 9.343E-01, 4.468E+01
 2.170E+00, 9.209E-01, 4.435E+01
 2.190E+00, 9.079E-01, 4.404E+01
 2.210E+00, 8.950E-01, 4.373E+01
 2.230E+00, 8.823E-01, 4.343E+01
 2.250E+00, 8.696E-01, 4.312E+01
 2.270E+00, 8.570E-01, 4.282E+01
 2.290E+00, 8.445E-01, 4.252E+01
 2.310E+00, 8.319E-01, 4.222E+01
 2.330E+00, 8.188E-01, 4.190E+01
 2.350E+00, 8.051E-01, 4.157E+01
 2.370E+00, 7.905E-01, 4.123E+01
 2.390E+00, 7.758E-01, 4.089E+01
 2.410E+00, 7.597E-01, 4.051E+01
 2.430E+00, 7.482E-01, 4.026E+01
