m,kW/m2,C
Height,Flux,Temp
 1.000E-02, 1.984E+01, 3.707E+02
 3.000E-02, 2.478E+01, 4.302E+02
 5.000E-02, 3.005E+01, 4.795E+02
 7.000E-02, 3.518E+01, 5.199E+02
 9.000E-02, 3.965E+01, 5.505E+02
 1.100E-01, 4.336E+01, 5.733E+02
 1.300E-01, 4.640E+01, 5.903E+02
 1.500E-01, 4.886E+01, 6.032E+02
 1.700E-01, 5.088E+01, 6.132E+02
 1.900E-01, 5.256E+01, 6.213E+02
 2.100E-01, 5.394E+01, 6.277E+02
 2.300E-01, 5.509E+01, 6.328E+02
 2.500E-01, 5.603E+01, 6.369E+02
 2.700E-01, 5.676E+01, 6.400E+02
 2.900E-01, 5.731E+01, 6.422E+02
 3.100E-01, 5.767E+01, 6.436E+02
 3.300E-01, 5.789E+01, 6.443E+02
 3.500E-01, 5.793E+01, 6.441E+02
 3.700E-01, 5.781E+01, 6.432E+02
 3.900E-01, 5.754E+01, 6.416E+02
 4.100E-01, 5.711E+01, 6.392E+02
 4.300E-01, 5.656E+01, 6.361E+02
 4.500E-01, 5.588E+01, 6.324E+02
 4.700E-01, 5.509E+01, 6.280E+02
 4.900E-01, 5.419E+01, 6.231E+02
 5.100E-01, 5.319E+01, 6.176E+02
 5.300E-01, 5.213E+01, 6.116E+02
 5.500E-01, 5.102E+01, 6.052E+02
 5.700E-01, 4.984E+01, 5.983E+02
 5.900E-01, 4.862E+01, 5.909E+02
 6.100E-01, 4.732E+01, 5.830E+02
 6.300E-01, 4.597E+01, 5.746E+02
 6.500E-01, 4.459E+01, 5.658E+02
 6.700E-01, 4.318E+01, 5.566E+02
 6.900E-01, 4.177E+01, 5.471E+02
 7.100E-01, 4.037E+01, 5.373E+02
 7.300E-01, 3.896E+01, 5.273E+02
 7.500E-01, 3.756E+01, 5.170E+02
 7.700E-01, 3.616E+01, 5.063E+02
 7.900E-01, 3.477E+01, 4.953E+02
 8.100E-01, 3.339E+01, 4.842E+02
 8.300E-01, 3.203E+01, 4.730E+02
 8.500E-01, 3.070E+01, 4.616E+02
 8.700E-01, 2.939E+01, 4.500E+02
 8.900E-01, 2.810E+01, 4.383E+02
 9.100E-01, 2.682E+01, 4.263E+02
 9.300E-01, 2.558E+01, 4.142E+02
 9.500E-01, 2.437E+01, 4.021E+02
 9.700E-01, 2.321E+01, 3.900E+02
 9.900E-01, 2.209E+01, 3.780E+02
 1.010E+00, 2.103E+01, 3.661E+02
 1.030E+00, 2.000E+01, 3.545E+02
 1.050E+00, 1.902E+01, 3.429E+02
 1.070E+00, 1.807E+01, 3.314E+02
 1.090E+00, 1.717E+01, 3.202E+02
 1.110E+00, 1.632E+01, 3.092E+02
 1.130E+00, 1.551E+01, 2.985E+02
 1.150E+00, 1.473E+01, 2.880E+02
 1.170E+00, 1.400E+01, 2.777E+02
 1.190E+00, 1.329E+01, 2.676E+02
 1.210E+00, 1.263E+01, 2.578E+02
 1.230E+00, 1.199E+01, 2.482E+02
 1.250E+00, 1.139E+01, 2.390E+02
 1.270E+00, 1.083E+01, 2.302E+02
 1.290E+00, 1.028E+01, 2.216E+02
 1.310E+00, 9.772E+00, 2.133E+02
 1.330E+00, 9.289E+00, 2.053E+02
 1.350E+00, 8.835E+00, 1.976E+02
 1.370E+00, 8.407E+00, 1.903E+02
 1.390E+00, 8.005E+00, 1.834E+02
 1.410E+00, 7.624E+00, 1.767E+02
 1.430E+00, 7.266E+00, 1.703E+02
 1.450E+00, 6.930E+00, 1.643E+02
 1.470E+00, 6.617E+00, 1.586E+02
 1.490E+00, 6.325E+00, 1.532E+02
 1.510E+00, 6.054E+00, 1.482E+02
 1.530E+00, 5.802E+00, 1.434E+02
 1.550E+00, 5.565E+00, 1.388E+02
 1.570E+00, 5.342E+00, 1.345E+02
 1.590E+00, 5.132E+00, 1.304E+02
 1.610E+00, 4.934E+00, 1.265E+02
 1.630E+00, 4.748E+00, 1.229E+02
 1.650E+00, 4.573E+00, 1.194E+02
 1.670E+00, 4.407E+00, 1.161E+02
 1.690E+00, 4.252E+00, 1.130E+02
 1.710E+00, 4.107E+00, 1.101E+02
 1.730E+00, 3.971E+00, 1.074E+02
 1.750E+00, 3.845E+00, 1.048E+02
 1.770E+00, 3.728E+00, 1.024E+02
 1.790E+00, 3.619E+00, 1.001E+02
 1.810E+00, 3.517E+00, 9.791E+01
 1.830E+00, 3.421E+00, 9.587E+01
 1.850E+00, 3.329E+00, 9.393E+01
 1.870E+00, 3.242E+00, 9.209E+01
 1.890E+00, 3.158E+00, 9.033E+01
 1.910E+00, 3.079E+00, 8.867E+01
 1.930E+00, 3.004E+00, 8.707E+01
 1.950E+00, 2.933E+00, 8.555E+01
 1.970E+00, 2.865E+00, 8.409E+01
 1.990E+00, 2.801E+00, 8.270E+01
 2.010E+00, 2.739E+00, 8.137E+01
 2.030E+00, 2.680E+00, 8.009E+01
 2.050E+00, 2.621E+00, 7.884E+01
 2.070E+00, 2.565E+00, 7.766E+01
 2.090E+00, 2.510E+00, 7.652E+01
 2.110E+00, 2.458E+00, 7.543E+01
 2.130E+00, 2.407E+00, 7.439E+01
 2.150E+00, 2.360E+00, 7.340E+01
 2.170E+00, 2.314E+00, 7.245E+01
 2.190E+00, 2.270E+00, 7.154E+01
 2.210E+00, 2.227E+00, 7.066E+01
 2.230E+00, 2.185E+00, 6.981E+01
 2.250E+00, 2.145E+00, 6.898E+01
 2.270E+00, 2.106E+00, 6.817E+01
 2.290E+00, 2.068E+00, 6.737E+01
 2.310E+00, 2.030E+00, 6.659E+01
 2.330E+00, 1.992E+00, 6.582E+01
 2.350E+00, 1.955E+00, 6.504E+01
 2.370E+00, 1.915E+00, 6.422E+01
 2.390E+00, 1.874E+00, 6.340E+01
 2.410E+00, 1.828E+00, 6.247E+01
 2.430E+00, 1.795E+00, 6.183E+01
