m,kW/m2,C
Height,Flux,Temp
 1.000E-02, 3.171E+01, 4.883E+02
 3.000E-02, 4.246E+01, 5.693E+02
 5.000E-02, 4.982E+01, 6.159E+02
 7.000E-02, 5.428E+01, 6.420E+02
 9.000E-02, 5.662E+01, 6.549E+02
 1.100E-01, 5.775E+01, 6.604E+02
 1.300E-01, 5.811E+01, 6.617E+02
 1.500E-01, 5.797E+01, 6.604E+02
 1.700E-01, 5.759E+01, 6.580E+02
 1.900E-01, 5.708E+01, 6.546E+02
 2.100E-01, 5.642E+01, 6.505E+02
 2.300E-01, 5.566E+01, 6.459E+02
 2.500E-01, 5.482E+01, 6.409E+02
 2.700E-01, 5.387E+01, 6.353E+02
 2.900E-01, 5.279E+01, 6.291E+02
 3.100E-01, 5.159E+01, 6.223E+02
 3.300E-01, 5.027E+01, 6.148E+02
 3.500E-01, 4.882E+01, 6.065E+02
 3.700E-01, 4.734E+01, 5.976E+02
 3.900E-01, 4.571E+01, 5.878E+02
 4.100E-01, 4.399E+01, 5.772E+02
 4.300E-01, 4.223E+01, 5.658E+02
 4.500E-01, 4.037E+01, 5.536E+02
 4.700E-01, 3.847E+01, 5.408E+02
 4.900E-01, 3.654E+01, 5.274E+02
 5.100E-01, 3.463E+01, 5.136E+02
 5.300E-01, 3.277E+01, 4.995E+02
 5.500E-01, 3.094E+01, 4.850E+02
 5.700E-01, 2.916E+01, 4.703E+02
 5.900E-01, 2.746E+01, 4.554E+02
 6.100E-01, 2.583E+01, 4.404E+02
 6.300E-01, 2.427E+01, 4.252E+02
 6.500E-01, 2.275E+01, 4.100E+02
 6.700E-01, 2.129E+01, 3.947E+02
 6.900E-01, 1.992E+01, 3.795E+02
 7.100E-01, 1.862E+01, 3.644E+02
 7.300E-01, 1.740E+01, 3.495E+02
 7.500E-01, 1.625E+01, 3.348E+02
 7.700E-01, 1.515E+01, 3.201E+02
 7.900E-01, 1.410E+01, 3.055E+02
 8.100E-01, 1.311E+01, 2.913E+02
 8.300E-01, 1.220E+01, 2.775E+02
 8.500E-01, 1.134E+01, 2.641E+02
 8.700E-01, 1.055E+01, 2.512E+02
 8.900E-01, 9.834E+00, 2.390E+02
 9.100E-01, 9.171E+00, 2.272E+02
 9.300E-01, 8.561E+00, 2.160E+02
 9.500E-01, 8.000E+00, 2.054E+02
 9.700E-01, 7.485E+00, 1.953E+02
 9.900E-01, 7.010E+00, 1.857E+02
 1.010E+00, 6.573E+00, 1.767E+02
 1.030E+00, 6.171E+00, 1.682E+02
 1.050E+00, 5.799E+00, 1.602E+02
 1.070E+00, 5.455E+00, 1.526E+02
 1.090E+00, 5.134E+00, 1.455E+02
 1.110E+00, 4.836E+00, 1.387E+02
 1.130E+00, 4.555E+00, 1.324E+02
 1.150E+00, 4.294E+00, 1.264E+02
 1.170E+00, 4.050E+00, 1.208E+02
 1.190E+00, 3.823E+00, 1.156E+02
 1.210E+00, 3.614E+00, 1.107E+02
 1.230E+00, 3.421E+00, 1.062E+02
 1.250E+00, 3.241E+00, 1.019E+02
 1.270E+00, 3.073E+00, 9.797E+01
 1.290E+00, 2.917E+00, 9.427E+01
 1.310E+00, 2.774E+00, 9.084E+01
 1.330E+00, 2.641E+00, 8.766E+01
 1.350E+00, 2.518E+00, 8.471E+01
 1.370E+00, 2.403E+00, 8.198E+01
 1.390E+00, 2.298E+00, 7.947E+01
 1.410E+00, 2.199E+00, 7.713E+01
 1.430E+00, 2.109E+00, 7.497E+01
 1.450E+00, 2.024E+00, 7.296E+01
 1.470E+00, 1.946E+00, 7.108E+01
 1.490E+00, 1.873E+00, 6.931E+01
 1.510E+00, 1.806E+00, 6.766E+01
 1.530E+00, 1.745E+00, 6.612E+01
 1.550E+00, 1.688E+00, 6.467E+01
 1.570E+00, 1.636E+00, 6.333E+01
 1.590E+00, 1.588E+00, 6.210E+01
 1.610E+00, 1.544E+00, 6.096E+01
 1.630E+00, 1.503E+00, 5.990E+01
 1.650E+00, 1.465E+00, 5.890E+01
 1.670E+00, 1.429E+00, 5.796E+01
 1.690E+00, 1.394E+00, 5.705E+01
 1.710E+00, 1.360E+00, 5.619E+01
 1.730E+00, 1.328E+00, 5.537E+01
 1.750E+00, 1.298E+00, 5.460E+01
 1.770E+00, 1.269E+00, 5.387E+01
 1.790E+00, 1.242E+00, 5.317E+01
 1.810E+00, 1.216E+00, 5.250E+01
 1.830E+00, 1.191E+00, 5.187E+01
 1.850E+00, 1.167E+00, 5.127E+01
 1.870E+00, 1.144E+00, 5.069E+01
 1.890E+00, 1.122E+00, 5.012E+01
 1.910E+00, 1.101E+00, 4.958E+01
 1.930E+00, 1.081E+00, 4.906E+01
 1.950E+00, 1.062E+00, 4.856E+01
 1.970E+00, 1.045E+00, 4.808E+01
 1.990E+00, 1.028E+00, 4.763E+01
 2.010E+00, 1.011E+00, 4.719E+01
 2.030E+00, 9.958E-01, 4.678E+01
 2.050E+00, 9.805E-01, 4.637E+01
 2.070E+00, 9.650E-01, 4.596E+01
 2.090E+00, 9.497E-01, 4.557E+01
 2.110E+00, 9.345E-01, 4.519E+01
 2.130E+00, 9.196E-01, 4.482E+01
 2.150E+00, 9.048E-01, 4.445E+01
 2.170E+00, 8.904E-01, 4.409E+01
 2.190E+00, 8.765E-01, 4.374E+01
 2.210E+00, 8.628E-01, 4.339E+01
 2.230E+00, 8.496E-01, 4.306E+01
 2.250E+00, 8.364E-01, 4.272E+01
 2.270E+00, 8.233E-01, 4.238E+01
 2.290E+00, 8.104E-01, 4.205E+01
 2.310E+00, 7.980E-01, 4.172E+01
 2.330E+00, 7.853E-01, 4.139E+01
 2.350E+00, 7.726E-01, 4.106E+01
 2.370E+00, 7.586E-01, 4.071E+01
 2.390E+00, 7.444E-01, 4.035E+01
 2.410E+00, 7.283E-01, 3.996E+01
 2.430E+00, 7.170E-01, 3.970E+01
