m,kW/m2,C
Height,Flux,Temp
 1.000E-02, 3.265E+01, 5.017E+02
 3.000E-02, 4.609E+01, 5.954E+02
 5.000E-02, 5.083E+01, 6.224E+02
 7.000E-02, 5.107E+01, 6.230E+02
 9.000E-02, 4.901E+01, 6.111E+02
 1.100E-01, 4.604E+01, 5.936E+02
 1.300E-01, 4.301E+01, 5.747E+02
 1.500E-01, 4.011E+01, 5.557E+02
 1.700E-01, 3.729E+01, 5.364E+02
 1.900E-01, 3.468E+01, 5.174E+02
 2.100E-01, 3.223E+01, 4.987E+02
 2.300E-01, 2.992E+01, 4.799E+02
 2.500E-01, 2.771E+01, 4.608E+02
 2.700E-01, 2.564E+01, 4.419E+02
 2.900E-01, 2.366E+01, 4.227E+02
 3.100E-01, 2.179E+01, 4.036E+02
 3.300E-01, 2.005E+01, 3.846E+02
 3.500E-01, 1.844E+01, 3.658E+02
 3.700E-01, 1.697E+01, 3.476E+02
 3.900E-01, 1.564E+01, 3.300E+02
 4.100E-01, 1.439E+01, 3.128E+02
 4.300E-01, 1.324E+01, 2.960E+02
 4.500E-01, 1.219E+01, 2.798E+02
 4.700E-01, 1.122E+01, 2.642E+02
 4.900E-01, 1.034E+01, 2.493E+02
 5.100E-01, 9.519E+00, 2.350E+02
 5.300E-01, 8.778E+00, 2.214E+02
 5.500E-01, 8.083E+00, 2.084E+02
 5.700E-01, 7.438E+00, 1.960E+02
 5.900E-01, 6.843E+00, 1.843E+02
 6.100E-01, 6.308E+00, 1.734E+02
 6.300E-01, 5.816E+00, 1.632E+02
 6.500E-01, 5.373E+00, 1.537E+02
 6.700E-01, 4.966E+00, 1.448E+02
 6.900E-01, 4.597E+00, 1.365E+02
 7.100E-01, 4.262E+00, 1.289E+02
 7.300E-01, 3.966E+00, 1.219E+02
 7.500E-01, 3.692E+00, 1.155E+02
 7.700E-01, 3.447E+00, 1.095E+02
 7.900E-01, 3.218E+00, 1.040E+02
 8.100E-01, 3.012E+00, 9.890E+01
 8.300E-01, 2.818E+00, 9.414E+01
 8.500E-01, 2.642E+00, 8.975E+01
 8.700E-01, 2.478E+00, 8.567E+01
 8.900E-01, 2.330E+00, 8.192E+01
 9.100E-01, 2.194E+00, 7.845E+01
 9.300E-01, 2.071E+00, 7.527E+01
 9.500E-01, 1.957E+00, 7.233E+01
 9.700E-01, 1.854E+00, 6.966E+01
 9.900E-01, 1.758E+00, 6.719E+01
 1.010E+00, 1.670E+00, 6.493E+01
 1.030E+00, 1.588E+00, 6.285E+01
 1.050E+00, 1.514E+00, 6.093E+01
 1.070E+00, 1.445E+00, 5.917E+01
 1.090E+00, 1.383E+00, 5.756E+01
 1.110E+00, 1.326E+00, 5.608E+01
 1.130E+00, 1.274E+00, 5.471E+01
 1.150E+00, 1.225E+00, 5.345E+01
 1.170E+00, 1.180E+00, 5.227E+01
 1.190E+00, 1.138E+00, 5.118E+01
 1.210E+00, 1.099E+00, 5.016E+01
 1.230E+00, 1.063E+00, 4.922E+01
 1.250E+00, 1.029E+00, 4.834E+01
 1.270E+00, 9.969E-01, 4.752E+01
 1.290E+00, 9.667E-01, 4.674E+01
 1.310E+00, 9.389E-01, 4.600E+01
 1.330E+00, 9.127E-01, 4.531E+01
 1.350E+00, 8.886E-01, 4.466E+01
 1.370E+00, 8.653E-01, 4.403E+01
 1.390E+00, 8.432E-01, 4.344E+01
 1.410E+00, 8.218E-01, 4.288E+01
 1.430E+00, 8.017E-01, 4.235E+01
 1.450E+00, 7.823E-01, 4.184E+01
 1.470E+00, 7.644E-01, 4.135E+01
 1.490E+00, 7.474E-01, 4.089E+01
 1.510E+00, 7.316E-01, 4.046E+01
 1.530E+00, 7.166E-01, 4.004E+01
 1.550E+00, 7.024E-01, 3.965E+01
 1.570E+00, 6.886E-01, 3.927E+01
 1.590E+00, 6.751E-01, 3.890E+01
 1.610E+00, 6.618E-01, 3.855E+01
 1.630E+00, 6.489E-01, 3.820E+01
 1.650E+00, 6.365E-01, 3.787E+01
 1.670E+00, 6.245E-01, 3.754E+01
 1.690E+00, 6.132E-01, 3.724E+01
 1.710E+00, 6.023E-01, 3.694E+01
 1.730E+00, 5.919E-01, 3.666E+01
 1.750E+00, 5.821E-01, 3.639E+01
 1.770E+00, 5.729E-01, 3.613E+01
 1.790E+00, 5.643E-01, 3.589E+01
 1.810E+00, 5.560E-01, 3.566E+01
 1.830E+00, 5.481E-01, 3.543E+01
 1.850E+00, 5.404E-01, 3.522E+01
 1.870E+00, 5.329E-01, 3.500E+01
 1.890E+00, 5.254E-01, 3.479E+01
 1.910E+00, 5.180E-01, 3.457E+01
 1.930E+00, 5.108E-01, 3.437E+01
 1.950E+00, 5.036E-01, 3.416E+01
 1.970E+00, 4.965E-01, 3.396E+01
 1.990E+00, 4.893E-01, 3.376E+01
 2.010E+00, 4.823E-01, 3.356E+01
 2.030E+00, 4.752E-01, 3.336E+01
 2.050E+00, 4.683E-01, 3.317E+01
 2.070E+00, 4.614E-01, 3.298E+01
 2.090E+00, 4.547E-01, 3.279E+01
 2.110E+00, 4.480E-01, 3.261E+01
 2.130E+00, 4.414E-01, 3.244E+01
 2.150E+00, 4.349E-01, 3.227E+01
 2.170E+00, 4.283E-01, 3.210E+01
 2.190E+00, 4.221E-01, 3.194E+01
 2.210E+00, 4.160E-01, 3.179E+01
 2.230E+00, 4.103E-01, 3.164E+01
 2.250E+00, 4.048E-01, 3.149E+01
 2.270E+00, 3.995E-01, 3.135E+01
 2.290E+00, 3.943E-01, 3.121E+01
 2.310E+00, 3.891E-01, 3.107E+01
 2.330E+00, 3.836E-01, 3.093E+01
 2.350E+00, 3.779E-01, 3.078E+01
 2.370E+00, 3.716E-01, 3.062E+01
 2.390E+00, 3.651E-01, 3.045E+01
 2.410E+00, 3.577E-01, 3.026E+01
 2.430E+00, 3.527E-01, 3.014E+01
