m,kW/m2,C
Height,Flux,Temp
 1.0000000E-002, 2.1493897E+001, 3.9238787E+002
 3.0000000E-002, 2.7889487E+001, 4.5521684E+002
 5.0000000E-002, 3.1209846E+001, 4.8104709E+002
 7.0000000E-002, 3.1933671E+001, 4.8451306E+002
 9.0000000E-002, 3.1212949E+001, 4.7725009E+002
 1.1000000E-001, 2.9974294E+001, 4.6582006E+002
 1.3000000E-001, 2.8521580E+001, 4.5273033E+002
 1.5000000E-001, 2.7051989E+001, 4.3919991E+002
 1.7000000E-001, 2.5634653E+001, 4.2563212E+002
 1.9000000E-001, 2.4261003E+001, 4.1203516E+002
 2.1000000E-001, 2.2834300E+001, 3.9762745E+002
 2.3000000E-001, 2.1405652E+001, 3.8250511E+002
 2.5000000E-001, 1.9990629E+001, 3.6685590E+002
 2.7000000E-001, 1.8587393E+001, 3.5078021E+002
 2.9000000E-001, 1.7232034E+001, 3.3440977E+002
 3.1000000E-001, 1.5956442E+001, 3.1805855E+002
 3.3000000E-001, 1.4760085E+001, 3.0192058E+002
 3.5000000E-001, 1.3629611E+001, 2.8603251E+002
 3.7000000E-001, 1.2571015E+001, 2.7039136E+002
 3.9000000E-001, 1.1602122E+001, 2.5533231E+002
 4.1000000E-001, 1.0704548E+001, 2.4071496E+002
 4.3000000E-001, 9.8779964E+000, 2.2680340E+002
 4.5000000E-001, 9.1188249E+000, 2.1364490E+002
 4.7000000E-001, 8.4161424E+000, 2.0106830E+002
 4.9000000E-001, 7.7684991E+000, 1.8919355E+002
 5.1000000E-001, 7.1714790E+000, 1.7807673E+002
 5.3000000E-001, 6.6246980E+000, 1.6770399E+002
 5.5000000E-001, 6.1306041E+000, 1.5804120E+002
 5.7000000E-001, 5.6820472E+000, 1.4909411E+002
 5.9000000E-001, 5.2756540E+000, 1.4084130E+002
 6.1000000E-001, 4.9093343E+000, 1.3323908E+002
 6.3000000E-001, 4.5717797E+000, 1.2617389E+002
 6.5000000E-001, 4.2743009E+000, 1.1975097E+002
 6.7000000E-001, 4.0062351E+000, 1.1391252E+002
 6.9000000E-001, 3.7592660E+000, 1.0852080E+002
 7.1000000E-001, 3.5320676E+000, 1.0353292E+002
 7.3000000E-001, 3.3243624E+000, 9.8923832E+001
 7.5000000E-001, 3.1339983E+000, 9.4690742E+001
 7.7000000E-001, 2.9592509E+000, 9.0775691E+001
 7.9000000E-001, 2.8010575E+000, 8.7233784E+001
 8.1000000E-001, 2.6591659E+000, 8.4046697E+001
 8.3000000E-001, 2.5295285E+000, 8.1121213E+001
 8.5000000E-001, 2.4097250E+000, 7.8422909E+001
 8.7000000E-001, 2.3011681E+000, 7.5952469E+001
 8.9000000E-001, 2.2018509E+000, 7.3675970E+001
 9.1000000E-001, 2.1098682E+000, 7.1548034E+001
 9.3000000E-001, 2.0263188E+000, 6.9588212E+001
 9.5000000E-001, 1.9501017E+000, 6.7782872E+001
 9.7000000E-001, 1.8805174E+000, 6.6114853E+001
 9.9000000E-001, 1.8158969E+000, 6.4560307E+001
 1.0100000E+000, 1.7557770E+000, 6.3112910E+001
 1.0300000E+000, 1.6997881E+000, 6.1758528E+001
 1.0500000E+000, 1.6471837E+000, 6.0491517E+001
 1.0700000E+000, 1.5974808E+000, 5.9292171E+001
 1.0900000E+000, 1.5508454E+000, 5.8150102E+001
 1.1100000E+000, 1.5078539E+000, 5.7078434E+001
 1.1300000E+000, 1.4675754E+000, 5.6064391E+001
 1.1500000E+000, 1.4290313E+000, 5.5100060E+001
 1.1700000E+000, 1.3921014E+000, 5.4178590E+001
 1.1900000E+000, 1.3571765E+000, 5.3309069E+001
 1.2100000E+000, 1.3238733E+000, 5.2486350E+001
 1.2300000E+000, 1.2917073E+000, 5.1702805E+001
 1.2500000E+000, 1.2606261E+000, 5.0952578E+001
 1.2700000E+000, 1.2307409E+000, 5.0229856E+001
 1.2900000E+000, 1.2024295E+000, 4.9537517E+001
 1.3100000E+000, 1.1756328E+000, 4.8876774E+001
 1.3300000E+000, 1.1497716E+000, 4.8247816E+001
 1.3500000E+000, 1.1248633E+000, 4.7658614E+001
 1.3700000E+000, 1.1007925E+000, 4.7108106E+001
 1.3900000E+000, 1.0777198E+000, 4.6588704E+001
 1.4100000E+000, 1.0557166E+000, 4.6092053E+001
 1.4300000E+000, 1.0347292E+000, 4.5612709E+001
 1.4500000E+000, 1.0153548E+000, 4.5153519E+001
 1.4700000E+000, 9.9671123E-001, 4.4701486E+001
 1.4900000E+000, 9.7848270E-001, 4.4251014E+001
 1.5100000E+000, 9.6070424E-001, 4.3817914E+001
 1.5300000E+000, 9.4309951E-001, 4.3400991E+001
 1.5500000E+000, 9.2602238E-001, 4.2999975E+001
 1.5700000E+000, 9.0962341E-001, 4.2609909E+001
 1.5900000E+000, 8.9340802E-001, 4.2223952E+001
 1.6100000E+000, 8.7738613E-001, 4.1842444E+001
 1.6300000E+000, 8.6215792E-001, 4.1478744E+001
 1.6500000E+000, 8.4722375E-001, 4.1119699E+001
 1.6700000E+000, 8.3302442E-001, 4.0773779E+001
 1.6900000E+000, 8.1912693E-001, 4.0437583E+001
 1.7100000E+000, 8.0590208E-001, 4.0114992E+001
 1.7300000E+000, 7.9281292E-001, 3.9798299E+001
 1.7500000E+000, 7.8003187E-001, 3.9493279E+001
 1.7700000E+000, 7.6743418E-001, 3.9195851E+001
 1.7900000E+000, 7.5555309E-001, 3.8910822E+001
 1.8100000E+000, 7.4447866E-001, 3.8638077E+001
 1.8300000E+000, 7.3386088E-001, 3.8375426E+001
 1.8500000E+000, 7.2359168E-001, 3.8118517E+001
 1.8700000E+000, 7.1383336E-001, 3.7870337E+001
 1.8900000E+000, 7.0412605E-001, 3.7621995E+001
 1.9100000E+000, 6.9478581E-001, 3.7381084E+001
 1.9300000E+000, 6.8577992E-001, 3.7148868E+001
 1.9500000E+000, 6.7735582E-001, 3.6928748E+001
 1.9700000E+000, 6.6921482E-001, 3.6714593E+001
 1.9900000E+000, 6.6167006E-001, 3.6513337E+001
 2.0100000E+000, 6.5462446E-001, 3.6323965E+001
 2.0300000E+000, 6.4787592E-001, 3.6141424E+001
 2.0500000E+000, 6.4096688E-001, 3.5957627E+001
 2.0700000E+000, 6.3393661E-001, 3.5774650E+001
 2.0900000E+000, 6.2660597E-001, 3.5589591E+001
 2.1100000E+000, 6.1940458E-001, 3.5407657E+001
 2.1300000E+000, 6.1237634E-001, 3.5231262E+001
 2.1500000E+000, 6.0547800E-001, 3.5061619E+001
 2.1700000E+000, 5.9842929E-001, 3.4890849E+001
 2.1900000E+000, 5.9135599E-001, 3.4723452E+001
 2.2100000E+000, 5.8442765E-001, 3.4560235E+001
 2.2300000E+000, 5.7764042E-001, 3.4402069E+001
 2.2500000E+000, 5.7063701E-001, 3.4239554E+001
 2.2700000E+000, 5.6359511E-001, 3.4077196E+001
 2.2900000E+000, 5.5625659E-001, 3.3909330E+001
 2.3100000E+000, 5.4941546E-001, 3.3751641E+001
 2.3300000E+000, 5.4258822E-001, 3.3591730E+001
 2.3500000E+000, 5.3619685E-001, 3.3435564E+001
 2.3700000E+000, 5.2973400E-001, 3.3269930E+001
 2.3900000E+000, 5.2316760E-001, 3.3101230E+001
 2.4100000E+000, 5.1548219E-001, 3.2908935E+001
 2.4300000E+000, 5.0981292E-001, 3.2771227E+001
