m,kW/m2,C
Height,Flux,Temp
 1.0000000E-002, 2.3418060E+001, 4.0851919E+002
 3.0000000E-002, 3.3226086E+001, 4.9411789E+002
 5.0000000E-002, 3.6349876E+001, 5.1553808E+002
 7.0000000E-002, 3.6332517E+001, 5.1472134E+002
 9.0000000E-002, 3.4886432E+001, 5.0398940E+002
 1.1000000E-001, 3.2965468E+001, 4.8935963E+002
 1.3000000E-001, 3.0960745E+001, 4.7327008E+002
 1.5000000E-001, 2.9055323E+001, 4.5717974E+002
 1.7000000E-001, 2.7250120E+001, 4.4121316E+002
 1.9000000E-001, 2.5548000E+001, 4.2549349E+002
 2.1000000E-001, 2.3964898E+001, 4.1013287E+002
 2.3000000E-001, 2.2476310E+001, 3.9489794E+002
 2.5000000E-001, 2.1077008E+001, 3.7990140E+002
 2.7000000E-001, 1.9747070E+001, 3.6505141E+002
 2.9000000E-001, 1.8492068E+001, 3.5034378E+002
 3.1000000E-001, 1.7307496E+001, 3.3581385E+002
 3.3000000E-001, 1.6175363E+001, 3.2141252E+002
 3.5000000E-001, 1.5114407E+001, 3.0732183E+002
 3.7000000E-001, 1.4121246E+001, 2.9350268E+002
 3.9000000E-001, 1.3194271E+001, 2.8006683E+002
 4.1000000E-001, 1.2336202E+001, 2.6708124E+002
 4.3000000E-001, 1.1532421E+001, 2.5444816E+002
 4.5000000E-001, 1.0770342E+001, 2.4208428E+002
 4.7000000E-001, 1.0073894E+001, 2.3034675E+002
 4.9000000E-001, 9.4250218E+000, 2.1910659E+002
 5.1000000E-001, 8.8269262E+000, 2.0840221E+002
 5.3000000E-001, 8.2628978E+000, 1.9809414E+002
 5.5000000E-001, 7.7392888E+000, 1.8832196E+002
 5.7000000E-001, 7.2506020E+000, 1.7900604E+002
 5.9000000E-001, 6.7917835E+000, 1.7013048E+002
 6.1000000E-001, 6.3667457E+000, 1.6174671E+002
 6.3000000E-001, 5.9719792E+000, 1.5386106E+002
 6.5000000E-001, 5.6056247E+000, 1.4645150E+002
 6.7000000E-001, 5.2689979E+000, 1.3955172E+002
 6.9000000E-001, 4.9544665E+000, 1.3306391E+002
 7.1000000E-001, 4.6656612E+000, 1.2698895E+002
 7.3000000E-001, 4.3970185E+000, 1.2132669E+002
 7.5000000E-001, 4.1498495E+000, 1.1602108E+002
 7.7000000E-001, 3.9230134E+000, 1.1108303E+002
 7.9000000E-001, 3.7101902E+000, 1.0642843E+002
 8.1000000E-001, 3.5131716E+000, 1.0210711E+002
 8.3000000E-001, 3.3305129E+000, 9.8064522E+001
 8.5000000E-001, 3.1604083E+000, 9.4283806E+001
 8.7000000E-001, 3.0019393E+000, 9.0753024E+001
 8.9000000E-001, 2.8552741E+000, 8.7454663E+001
 9.1000000E-001, 2.7186400E+000, 8.4380472E+001
 9.3000000E-001, 2.5914630E+000, 8.1497210E+001
 9.5000000E-001, 2.4750319E+000, 7.8830019E+001
 9.7000000E-001, 2.3684253E+000, 7.6353433E+001
 9.9000000E-001, 2.2704312E+000, 7.4065205E+001
 1.0100000E+000, 2.1792140E+000, 7.1927447E+001
 1.0300000E+000, 2.0940310E+000, 6.9931146E+001
 1.0500000E+000, 2.0146295E+000, 6.8074100E+001
 1.0700000E+000, 1.9403424E+000, 6.6336757E+001
 1.0900000E+000, 1.8712512E+000, 6.4716806E+001
 1.1100000E+000, 1.8071842E+000, 6.3206936E+001
 1.1300000E+000, 1.7477182E+000, 6.1801050E+001
 1.1500000E+000, 1.6923591E+000, 6.0489877E+001
 1.1700000E+000, 1.6405471E+000, 5.9263749E+001
 1.1900000E+000, 1.5918134E+000, 5.8115570E+001
 1.2100000E+000, 1.5461749E+000, 5.7037834E+001
 1.2300000E+000, 1.5030287E+000, 5.6020608E+001
 1.2500000E+000, 1.4619952E+000, 5.5051978E+001
 1.2700000E+000, 1.4230706E+000, 5.4137927E+001
 1.2900000E+000, 1.3863694E+000, 5.3275003E+001
 1.3100000E+000, 1.3520372E+000, 5.2473346E+001
 1.3300000E+000, 1.3190680E+000, 5.1703894E+001
 1.3500000E+000, 1.2881735E+000, 5.0980448E+001
 1.3700000E+000, 1.2587699E+000, 5.0288809E+001
 1.3900000E+000, 1.2313730E+000, 4.9642581E+001
 1.4100000E+000, 1.2051375E+000, 4.9020093E+001
 1.4300000E+000, 1.1803846E+000, 4.8431755E+001
 1.4500000E+000, 1.1566012E+000, 4.7863604E+001
 1.4700000E+000, 1.1338683E+000, 4.7325256E+001
 1.4900000E+000, 1.1116468E+000, 4.6802172E+001
 1.5100000E+000, 1.0900574E+000, 4.6304478E+001
 1.5300000E+000, 1.0691635E+000, 4.5823774E+001
 1.5500000E+000, 1.0491214E+000, 4.5361685E+001
 1.5700000E+000, 1.0297491E+000, 4.4911672E+001
 1.5900000E+000, 1.0108186E+000, 4.4473449E+001
 1.6100000E+000, 9.9198535E-001, 4.4042666E+001
 1.6300000E+000, 9.7359565E-001, 4.3624677E+001
 1.6500000E+000, 9.5528395E-001, 4.3214238E+001
 1.6700000E+000, 9.3771445E-001, 4.2818979E+001
 1.6900000E+000, 9.2079924E-001, 4.2436313E+001
 1.7100000E+000, 9.0497282E-001, 4.2076277E+001
 1.7300000E+000, 8.8979775E-001, 4.1728063E+001
 1.7500000E+000, 8.7544399E-001, 4.1400554E+001
 1.7700000E+000, 8.6138392E-001, 4.1078761E+001
 1.7900000E+000, 8.4769585E-001, 4.0769160E+001
 1.8100000E+000, 8.3443958E-001, 4.0465410E+001
 1.8300000E+000, 8.2162145E-001, 4.0175164E+001
 1.8500000E+000, 8.0912032E-001, 3.9889546E+001
 1.8700000E+000, 7.9680725E-001, 3.9613920E+001
 1.8900000E+000, 7.8484728E-001, 3.9344236E+001
 1.9100000E+000, 7.7319143E-001, 3.9082809E+001
 1.9300000E+000, 7.6191574E-001, 3.8824805E+001
 1.9500000E+000, 7.5081273E-001, 3.8570982E+001
 1.9700000E+000, 7.3999436E-001, 3.8320577E+001
 1.9900000E+000, 7.2926931E-001, 3.8075367E+001
 2.0100000E+000, 7.1911445E-001, 3.7835834E+001
 2.0300000E+000, 7.0915633E-001, 3.7601518E+001
 2.0500000E+000, 6.9973116E-001, 3.7370939E+001
 2.0700000E+000, 6.9024127E-001, 3.7143047E+001
 2.0900000E+000, 6.8125383E-001, 3.6919760E+001
 2.1100000E+000, 6.7186541E-001, 3.6695995E+001
 2.1300000E+000, 6.6302842E-001, 3.6475745E+001
 2.1500000E+000, 6.5369557E-001, 3.6253919E+001
 2.1700000E+000, 6.4474401E-001, 3.6034315E+001
 2.1900000E+000, 6.3508952E-001, 3.5813009E+001
 2.2100000E+000, 6.2592962E-001, 3.5595004E+001
 2.2300000E+000, 6.1633137E-001, 3.5379858E+001
 2.2500000E+000, 6.0709880E-001, 3.5162391E+001
 2.2700000E+000, 5.9749496E-001, 3.4949422E+001
 2.2900000E+000, 5.8799277E-001, 3.4727865E+001
 2.3100000E+000, 5.7838097E-001, 3.4515670E+001
 2.3300000E+000, 5.6802084E-001, 3.4281118E+001
 2.3500000E+000, 5.5764264E-001, 3.4056310E+001
 2.3700000E+000, 5.4496379E-001, 3.3777748E+001
 2.3900000E+000, 5.3215883E-001, 3.3505734E+001
 2.4100000E+000, 5.1206356E-001, 3.3082164E+001
 2.4300000E+000, 4.9492610E-001, 3.2769349E+001
