s,C,C,C,C,C,C,C,C,C
Time,"Air Temp","IRSN_1","IRSN_2","TRAC_2","TRAC_3","TRAC_4","VTT_1","GRS_2","NRC_1"
 0.0000000E+000, 2.0000000E+001, 2.0000000E+001, 2.0000000E+001, 2.0000000E+001, 2.0000000E+001, 2.0000000E+001, 2.0000000E+001, 2.0000000E+001, 2.0000000E+001
 1.0200000E+001, 2.2363636E+001, 1.9999731E+001, 1.9999716E+001, 1.9999622E+001, 1.9999638E+001, 1.9999617E+001, 1.9999678E+001, 1.9999634E+001, 1.9999454E+001
 2.0200000E+001, 2.6954546E+001, 2.0001160E+001, 2.0001177E+001, 2.0001688E+001, 2.0001642E+001, 2.0001713E+001, 2.0001400E+001, 2.0001860E+001, 2.0002867E+001
 3.0057779E+001, 3.7560188E+001, 2.0013069E+001, 2.0014038E+001, 2.0018032E+001, 2.0017233E+001, 2.0018291E+001, 2.0015650E+001, 2.0016401E+001, 2.0024191E+001
 4.0105689E+001, 5.9733040E+001, 2.0051098E+001, 2.0055786E+001, 2.0069988E+001, 2.0066778E+001, 2.0070963E+001, 2.0061378E+001, 2.0060402E+001, 2.0088955E+001
 5.0078397E+001, 8.2345673E+001, 2.0161814E+001, 2.0178671E+001, 2.0221554E+001, 2.0211527E+001, 2.0224543E+001, 2.0195452E+001, 2.0184521E+001, 2.0272762E+001
 6.0039244E+001, 1.0487321E+002, 2.0404789E+001, 2.0452587E+001, 2.0553335E+001, 2.0528406E+001, 2.0560556E+001, 2.0491564E+001, 2.0442444E+001, 2.0655329E+001
 7.0056554E+001, 1.2745900E+002, 2.0827637E+001, 2.0935385E+001, 2.1127110E+001, 2.1075531E+001, 2.1141485E+001, 2.1008038E+001, 2.0869926E+001, 2.1285444E+001
 8.0034949E+001, 1.5005583E+002, 2.1465822E+001, 2.1670969E+001, 2.1988583E+001, 2.1895540E+001, 2.2013586E+001, 2.1788336E+001, 2.1493031E+001, 2.2197386E+001
 9.0050321E+001, 1.7266110E+002, 2.2352165E+001, 2.2700277E+001, 2.3180573E+001, 2.3028328E+001, 2.3220209E+001, 2.2873024E+001, 2.2337006E+001, 2.3423561E+001
 1.0004533E+002, 1.9528860E+002, 2.3522907E+001, 2.4068502E+001, 2.4752426E+001, 2.4520304E+001, 2.4811314E+001, 2.4307989E+001, 2.3432589E+001, 2.5006790E+001
 1.1001962E+002, 2.1587770E+002, 2.5016672E+001, 2.5823790E+001, 2.6756910E+001, 2.6421871E+001, 2.6840195E+001, 2.6142597E+001, 2.4812889E+001, 2.6993217E+001
 1.2001908E+002, 2.1851749E+002, 2.6858614E+001, 2.8001614E+001, 2.9227211E+001, 2.8763538E+001, 2.9340376E+001, 2.8410116E+001, 2.6487547E+001, 2.9391537E+001
 1.3004603E+002, 2.1687596E+002, 2.8941837E+001, 3.0493647E+001, 3.2015343E+001, 3.1402023E+001, 3.2161846E+001, 3.0984722E+001, 2.8311388E+001, 3.1981720E+001
 1.4003728E+002, 2.1523492E+002, 3.1087543E+001, 3.3103363E+001, 3.4891922E+001, 3.4119877E+001, 3.5072323E+001, 3.3658195E+001, 3.0110630E+001, 3.4522247E+001
 1.5004224E+002, 2.1359605E+002, 3.3197968E+001, 3.5717854E+001, 3.7741920E+001, 3.6811264E+001, 3.7955246E+001, 3.6320171E+001, 3.1821421E+001, 3.6934982E+001
 1.6003410E+002, 2.1195682E+002, 3.5239647E+001, 3.8294781E+001, 4.0530991E+001, 3.9447071E+001, 4.0775677E+001, 3.8934570E+001, 3.3437538E+001, 3.9220829E+001
 1.7001664E+002, 2.1087918E+002, 3.7198349E+001, 4.0813217E+001, 4.3244225E+001, 4.2014675E+001, 4.3518490E+001, 4.1484680E+001, 3.4961376E+001, 4.1386948E+001
 1.8001988E+002, 2.1836949E+002, 3.9074142E+001, 4.3267673E+001, 4.5880211E+001, 4.4512852E+001, 4.6182358E+001, 4.3967327E+001, 3.6404060E+001, 4.3447670E+001
 1.9002326E+002, 2.2877502E+002, 4.0919693E+001, 4.5710461E+001, 4.8510010E+001, 4.7008385E+001, 4.8839634E+001, 4.6442348E+001, 3.7836376E+001, 4.5507259E+001
 2.0002472E+002, 2.3918167E+002, 4.2827141E+001, 4.8241272E+001, 5.1253323E+001, 4.9613750E+001, 5.1611786E+001, 4.9016453E+001, 3.9352940E+001, 4.7700859E+001
 2.1001886E+002, 2.4958353E+002, 4.4868263E+001, 5.0940601E+001, 5.4196785E+001, 5.2410915E+001, 5.4586369E+001, 5.1771412E+001, 4.1011169E+001, 5.0105423E+001
 2.2002284E+002, 2.5998654E+002, 4.7087044E+001, 5.3855637E+001, 5.7385098E+001, 5.5443871E+001, 5.7808086E+001, 5.4752941E+001, 4.2841469E+001, 5.2756496E+001
 2.3002218E+002, 2.7039285E+002, 4.9511658E+001, 5.7019360E+001, 6.0849266E+001, 5.8742275E+001, 6.1308086E+001, 5.7992500E+001, 4.4857487E+001, 5.5670631E+001
 2.4003843E+002, 2.8080399E+002, 5.2137669E+001, 6.0434761E+001, 6.4587830E+001, 6.2299252E+001, 6.5085678E+001, 6.1488400E+001, 4.7041298E+001, 5.8821602E+001
 2.5002312E+002, 2.9120923E+002, 5.4978386E+001, 6.4115944E+001, 6.8615936E+001, 6.6131569E+001, 6.9155769E+001, 6.5255768E+001, 4.9406746E+001, 6.2232231E+001
 2.6003197E+002, 3.0160965E+002, 5.8041451E+001, 6.8072128E+001, 7.2940369E+001, 7.0246140E+001, 7.3525040E+001, 6.9302681E+001, 5.1958126E+001, 6.5902367E+001
 2.7002502E+002, 3.1201547E+002, 6.1338924E+001, 7.2320412E+001, 7.7580643E+001, 7.4660896E+001, 7.8213333E+001, 7.3646652E+001, 5.4708080E+001, 6.9847229E+001
 2.8001999E+002, 3.2241318E+002, 6.4875313E+001, 7.6862312E+001, 8.2534271E+001, 7.9376755E+001, 8.3217438E+001, 7.8288734E+001, 5.7657848E+001, 7.4068199E+001
 2.9002880E+002, 3.3281921E+002, 6.8663078E+001, 8.1713707E+001, 8.7818665E+001, 8.4411079E+001, 8.8554832E+001, 8.3245514E+001, 6.0816929E+001, 7.8580582E+001
 3.0003233E+002, 3.4322989E+002, 7.2723137E+001, 8.6902008E+001, 9.3466957E+001, 8.9796364E+001, 9.4258881E+001, 8.8546959E+001, 6.4205368E+001, 8.3417152E+001
 3.1001638E+002, 3.5362790E+002, 7.7047623E+001, 9.2421867E+001, 9.9469009E+001, 9.5520752E+001, 1.0031958E+002, 9.4184715E+001, 6.7812111E+001, 8.8551659E+001
 3.2001122E+002, 3.6402072E+002, 8.1640686E+001, 9.8273460E+001, 1.0582172E+002, 1.0158438E+002, 1.0673317E+002, 1.0015869E+002, 7.1644714E+001, 9.3989876E+001
 3.3003018E+002, 3.7443256E+002, 8.6520195E+001, 1.0448531E+002, 1.1255949E+002, 1.0801797E+002, 1.1353479E+002, 1.0649870E+002, 7.5718002E+001, 9.9754669E+001
 3.4000188E+002, 3.8483173E+002, 9.1678177E+001, 1.1104427E+002, 1.1966440E+002, 1.1480698E+002, 1.2070580E+002, 1.1319074E+002, 8.0021942E+001, 1.0583508E+002
 3.5001174E+002, 3.9029468E+002, 9.7119896E+001, 1.1794438E+002, 1.2712219E+002, 1.2194428E+002, 1.2823050E+002, 1.2022798E+002, 8.4563248E+001, 1.1222904E+002
 3.6000432E+002, 3.9088382E+002, 1.0278698E+002, 1.2512485E+002, 1.3485217E+002, 1.2935382E+002, 1.3602679E+002, 1.2754191E+002, 8.9261772E+001, 1.1881735E+002
 3.7001997E+002, 3.9147229E+002, 1.0851633E+002, 1.3241731E+002, 1.4265704E+002, 1.3684560E+002, 1.4389529E+002, 1.3495274E+002, 9.3937508E+001, 1.2536175E+002
 3.8001435E+002, 3.9206082E+002, 1.1417730E+002, 1.3966991E+002, 1.5036928E+002, 1.4426242E+002, 1.5166644E+002, 1.4230504E+002, 9.8483971E+001, 1.3172154E+002
 3.9001930E+002, 3.9264902E+002, 1.1970981E+002, 1.4680278E+002, 1.5791354E+002, 1.5153577E+002, 1.5926398E+002, 1.4952402E+002, 1.0287635E+002, 1.3786993E+002
 4.0001766E+002, 3.9323737E+002, 1.2509584E+002, 1.5378986E+002, 1.6527090E+002, 1.5864711E+002, 1.6666914E+002, 1.5658752E+002, 1.0711812E+002, 1.4381175E+002
 4.1001629E+002, 3.9382550E+002, 1.3032614E+002, 1.6061182E+002, 1.7242815E+002, 1.6558347E+002, 1.7386884E+002, 1.6347951E+002, 1.1121291E+002, 1.4955855E+002
 4.2000612E+002, 3.9441342E+002, 1.3541484E+002, 1.6728026E+002, 1.7940521E+002, 1.7236267E+002, 1.8088370E+002, 1.7021494E+002, 1.1518079E+002, 1.5514539E+002
 4.3001938E+002, 3.9500174E+002, 1.4037822E+002, 1.7380267E+002, 1.8620909E+002, 1.7899245E+002, 1.8772064E+002, 1.7680156E+002, 1.1904320E+002, 1.6059216E+002
 4.4001512E+002, 3.9559021E+002, 1.4522452E+002, 1.8018382E+002, 1.9284842E+002, 1.8547913E+002, 1.9438881E+002, 1.8324504E+002, 1.2280658E+002, 1.6591339E+002
 4.5000111E+002, 3.9617795E+002, 1.4994930E+002, 1.8641498E+002, 1.9931339E+002, 1.9181110E+002, 2.0087857E+002, 1.8953549E+002, 1.2646370E+002, 1.7109816E+002
 4.6000537E+002, 3.9676587E+002, 1.5455606E+002, 1.9248560E+002, 2.0558661E+002, 1.9797275E+002, 2.0717213E+002, 1.9565971E+002, 1.3002602E+002, 1.7614384E+002
 4.7003033E+002, 3.9735495E+002, 1.5906737E+002, 1.9842062E+002, 2.1170201E+002, 2.0399504E+002, 2.1330420E+002, 2.0164569E+002, 1.3351276E+002, 1.8109023E+002
 4.8001994E+002, 3.9794363E+002, 1.6348601E+002, 2.0421951E+002, 2.1766116E+002, 2.0987856E+002, 2.1927655E+002, 2.0749353E+002, 1.3692543E+002, 1.8594183E+002
 4.9002372E+002, 3.9853168E+002, 1.6781482E+002, 2.0987930E+002, 2.2345824E+002, 2.1561740E+002, 2.2508337E+002, 2.1319882E+002, 1.4026627E+002, 1.9069441E+002
 5.0003062E+002, 3.9912021E+002, 1.7206276E+002, 2.1540892E+002, 2.2910243E+002, 2.2121957E+002, 2.3073404E+002, 2.1877003E+002, 1.4353926E+002, 1.9535471E+002
 5.1002935E+002, 3.9970837E+002, 1.7622444E+002, 2.2079597E+002, 2.3457945E+002, 2.2666937E+002, 2.3621449E+002, 2.2419322E+002, 1.4674371E+002, 1.9991203E+002
 5.2000208E+002, 3.9916116E+002, 1.8030379E+002, 2.2604953E+002, 2.3990727E+002, 2.3198213E+002, 2.4154335E+002, 2.2948050E+002, 1.4987782E+002, 2.0438350E+002
 5.3001363E+002, 3.9749597E+002, 1.8429213E+002, 2.3115939E+002, 2.4506389E+002, 2.3713617E+002, 2.4669818E+002, 2.3461629E+002, 1.5292549E+002, 2.0872836E+002
 5.4003247E+002, 3.9582675E+002, 1.8815546E+002, 2.3607961E+002, 2.4999496E+002, 2.4207985E+002, 2.5162425E+002, 2.3955119E+002, 1.5585738E+002, 2.1289969E+002
 5.5001226E+002, 3.9416016E+002, 1.9186911E+002, 2.4078809E+002, 2.5468774E+002, 2.4680038E+002, 2.5630896E+002, 2.4426761E+002, 1.5864880E+002, 2.1688882E+002
 5.6001714E+002, 3.9249466E+002, 1.9542862E+002, 2.4528311E+002, 2.5914111E+002, 2.5129514E+002, 2.6075131E+002, 2.4876367E+002, 1.6129565E+002, 2.2068916E+002
 5.7003316E+002, 3.9082626E+002, 1.9883669E+002, 2.4956042E+002, 2.6334955E+002, 2.5555754E+002, 2.6494598E+002, 2.5303398E+002, 1.6381070E+002, 2.2430702E+002
 5.8000624E+002, 3.8916064E+002, 2.0210835E+002, 2.5363896E+002, 2.6734479E+002, 2.5961789E+002, 2.6892542E+002, 2.5710300E+002, 1.6621059E+002, 2.2778304E+002
 5.9001672E+002, 3.8749536E+002, 2.0525388E+002, 2.5752945E+002, 2.7113449E+002, 2.6348267E+002, 2.7269739E+002, 2.6097964E+002, 1.6850145E+002, 2.3111534E+002
 6.0000416E+002, 3.8582877E+002, 2.0827147E+002, 2.6122580E+002, 2.7470953E+002, 2.6714197E+002, 2.7625290E+002, 2.6465594E+002, 1.7068353E+002, 2.3429485E+002
 6.1001131E+002, 3.8416260E+002, 2.1116089E+002, 2.6472409E+002, 2.7806610E+002, 2.7059042E+002, 2.7958835E+002, 2.6812735E+002, 1.7276088E+002, 2.3731979E+002
 6.2001212E+002, 3.8249524E+002, 2.1392406E+002, 2.6802335E+002, 2.8120486E+002, 2.7383151E+002, 2.8270392E+002, 2.7139474E+002, 1.7473567E+002, 2.4019839E+002
 6.3002449E+002, 3.8082745E+002, 2.1658569E+002, 2.7116354E+002, 2.8417856E+002, 2.7691437E+002, 2.8565320E+002, 2.7450305E+002, 1.7662390E+002, 2.4297379E+002
 6.4000601E+002, 3.7916135E+002, 2.1914359E+002, 2.7414111E+002, 2.8697949E+002, 2.7982767E+002, 2.8842911E+002, 2.7744510E+002, 1.7842508E+002, 2.4563113E+002
 6.5002446E+002, 3.7749469E+002, 2.2159726E+002, 2.7695099E+002, 2.8959686E+002, 2.8256137E+002, 2.9102054E+002, 2.8021326E+002, 1.8014017E+002, 2.4815709E+002
 6.6000179E+002, 3.7582831E+002, 2.2393559E+002, 2.7957312E+002, 2.9200693E+002, 2.8509277E+002, 2.9340356E+002, 2.8278601E+002, 1.8176550E+002, 2.5053493E+002
 6.7000697E+002, 3.7416309E+002, 2.2617358E+002, 2.8202975E+002, 2.9424323E+002, 2.8745541E+002, 2.9561191E+002, 2.8519110E+002, 1.8331416E+002, 2.5280275E+002
 6.8001608E+002, 3.7249521E+002, 2.2832100E+002, 2.8433401E+002, 2.9631610E+002, 2.8965823E+002, 2.9765607E+002, 2.8743985E+002, 1.8479166E+002, 2.5495897E+002
 6.9000424E+002, 3.7082877E+002, 2.3037411E+002, 2.8648300E+002, 2.9822638E+002, 2.9169986E+002, 2.9953735E+002, 2.8953009E+002, 1.8619637E+002, 2.5700714E+002
 7.0001623E+002, 3.6916211E+002, 2.3235481E+002, 2.8851334E+002, 3.0001865E+002, 2.9362360E+002, 3.0130078E+002, 2.9150186E+002, 1.8754025E+002, 2.5898065E+002
 7.1000466E+002, 3.6749533E+002, 2.3424712E+002, 2.9039789E+002, 3.0165244E+002, 2.9539008E+002, 3.0290524E+002, 2.9332211E+002, 1.8881450E+002, 2.6083459E+002
 7.2002919E+002, 3.6582761E+002, 2.3606203E+002, 2.9215482E+002, 3.0315631E+002, 2.9702863E+002, 3.0437961E+002, 2.9501413E+002, 1.9002823E+002, 2.6260452E+002
 7.3002490E+002, 3.6415924E+002, 2.3781030E+002, 2.9380267E+002, 3.0455225E+002, 2.9855920E+002, 3.0574615E+002, 2.9659741E+002, 1.9118802E+002, 2.6430460E+002
 7.4000624E+002, 3.6249448E+002, 2.3949458E+002, 2.9534692E+002, 3.0584412E+002, 2.9998441E+002, 3.0700897E+002, 2.9807626E+002, 1.9229604E+002, 2.6592929E+002
 7.5000963E+002, 3.6082877E+002, 2.4111891E+002, 2.9679202E+002, 3.0703754E+002, 3.0131119E+002, 3.0817343E+002, 2.9945605E+002, 1.9335623E+002, 2.6748914E+002
 7.6001752E+002, 3.5790350E+002, 2.4268983E+002, 2.9814847E+002, 3.0814120E+002, 3.0254822E+002, 3.0924817E+002, 3.0074661E+002, 1.9437120E+002, 2.6898148E+002
 7.7000391E+002, 3.5373804E+002, 2.4416116E+002, 2.9935678E+002, 3.0907932E+002, 3.0361996E+002, 3.1015689E+002, 3.0188058E+002, 1.9530061E+002, 2.7032111E+002
 7.8001286E+002, 3.4957245E+002, 2.4550839E+002, 3.0039505E+002, 3.0983328E+002, 3.0451007E+002, 3.1088074E+002, 3.0283826E+002, 1.9611877E+002, 2.7149362E+002
 7.9002761E+002, 3.4540073E+002, 2.4672739E+002, 3.0126456E+002, 3.1041003E+002, 3.0522656E+002, 3.1142661E+002, 3.0362421E+002, 1.9682295E+002, 2.7251038E+002
 8.0001853E+002, 3.4123267E+002, 2.4781479E+002, 3.0196548E+002, 3.1081180E+002, 3.0577066E+002, 3.1179703E+002, 3.0423926E+002, 1.9741289E+002, 2.7337131E+002
 8.1002277E+002, 3.3706720E+002, 2.4876817E+002, 3.0249545E+002, 3.1103589E+002, 3.0613885E+002, 3.1198932E+002, 3.0468073E+002, 1.9788818E+002, 2.7407358E+002
 8.2003204E+002, 3.3289780E+002, 2.4957591E+002, 3.0283270E+002, 3.1105289E+002, 3.0630096E+002, 3.1197403E+002, 3.0492267E+002, 1.9824571E+002, 2.7458990E+002
 8.3000233E+002, 3.2873514E+002, 2.5025349E+002, 3.0299860E+002, 3.1089777E+002, 3.0629245E+002, 3.1178656E+002, 3.0499304E+002, 1.9850539E+002, 2.7497183E+002
 8.4003046E+002, 3.2456848E+002, 2.5083772E+002, 3.0304407E+002, 3.1063077E+002, 3.0617285E+002, 3.1148737E+002, 3.0494736E+002, 1.9869156E+002, 2.7527216E+002
 8.5000566E+002, 3.2040115E+002, 2.5131834E+002, 3.0295187E+002, 3.1022174E+002, 3.0591052E+002, 3.1104620E+002, 3.0476169E+002, 1.9879524E+002, 2.7544760E+002
 8.6000650E+002, 3.1623959E+002, 2.5169588E+002, 3.0272348E+002, 3.0967615E+002, 3.0551086E+002, 3.1046866E+002, 3.0443915E+002, 1.9881976E+002, 2.7551086E+002
 8.7001067E+002, 3.1207645E+002, 2.5198628E+002, 3.0237845E+002, 3.0901700E+002, 3.0499826E+002, 3.0977756E+002, 3.0400162E+002, 1.9877814E+002, 2.7548563E+002
 8.8002807E+002, 3.3183331E+002, 2.5220357E+002, 3.0193182E+002, 3.0826196E+002, 3.0438931E+002, 3.0899084E+002, 3.0346509E+002, 1.9869031E+002, 2.7539481E+002
 8.9001755E+002, 3.7517618E+002, 2.5261604E+002, 3.0166138E+002, 3.0776926E+002, 3.0402832E+002, 3.0847162E+002, 3.0314047E+002, 1.9891382E+002, 2.7574481E+002
 9.0001282E+002, 4.1846942E+002, 2.5387889E+002, 3.0227026E+002, 3.0837662E+002, 3.0472018E+002, 3.0906696E+002, 3.0378424E+002, 2.0016994E+002, 2.7750748E+002
 9.1002039E+002, 4.6180453E+002, 2.5655096E+002, 3.0437097E+002, 3.1074414E+002, 3.0709769E+002, 3.1144241E+002, 3.0602234E+002, 2.0295605E+002, 2.8128656E+002
 9.2000579E+002, 5.0511823E+002, 2.6101077E+002, 3.0838052E+002, 3.1529074E+002, 3.1156653E+002, 3.1601868E+002, 3.1026770E+002, 2.0758299E+002, 2.8741345E+002
 9.3002510E+002, 5.4845831E+002, 2.6759262E+002, 3.1466513E+002, 3.2238840E+002, 3.1849347E+002, 3.2316858E+002, 3.1688721E+002, 2.1434514E+002, 2.9620798E+002
 9.4002198E+002, 5.9182458E+002, 2.7655936E+002, 3.2350351E+002, 3.3230432E+002, 3.2815134E+002, 3.3315787E+002, 3.2615616E+002, 2.2349348E+002, 3.0788629E+002
 9.5002083E+002, 6.3514429E+002, 2.8807895E+002, 3.3505884E+002, 3.4517438E+002, 3.4069678E+002, 3.4611807E+002, 3.3823318E+002, 2.3521400E+002, 3.2254434E+002
 9.6000487E+002, 6.7843597E+002, 3.0231235E+002, 3.4949152E+002, 3.6115405E+002, 3.5631561E+002, 3.6219901E+002, 3.5328940E+002, 2.4970787E+002, 3.4034317E+002
 9.7002167E+002, 6.7953522E+002, 3.1933630E+002, 3.6688162E+002, 3.8027457E+002, 3.7507254E+002, 3.8142480E+002, 3.7139679E+002, 2.6703683E+002, 3.6120639E+002
 9.8001508E+002, 6.3880499E+002, 3.3741180E+002, 3.8545520E+002, 4.0022345E+002, 3.9472061E+002, 4.0145639E+002, 3.9054617E+002, 2.8485577E+002, 3.8178281E+002
 9.9000103E+002, 5.9813025E+002, 3.5321710E+002, 4.0183395E+002, 4.1710544E+002, 4.1144180E+002, 4.1837268E+002, 4.0712677E+002, 2.9941699E+002, 3.9755420E+002
 1.0000232E+003, 5.5739594E+002, 3.6523340E+002, 4.1445761E+002, 4.2948434E+002, 4.2380502E+002, 4.3074240E+002, 4.1963303E+002, 3.0961325E+002, 4.0767325E+002
 1.0100290E+003, 5.1662286E+002, 3.7329056E+002, 4.2312457E+002, 4.3743036E+002, 4.3185977E+002, 4.3864764E+002, 4.2798859E+002, 3.1573239E+002, 4.1286362E+002
 1.0200277E+003, 4.7589767E+002, 3.7782916E+002, 4.2825107E+002, 4.4158661E+002, 4.3622351E+002, 4.4274182E+002, 4.3271469E+002, 3.1849524E+002, 4.1421848E+002
 1.0300015E+003, 4.3523734E+002, 3.7944952E+002, 4.3039337E+002, 4.4263617E+002, 4.3755161E+002, 4.4371573E+002, 4.3442258E+002, 3.1862885E+002, 4.1267142E+002
 1.0400119E+003, 4.1055063E+002, 3.7877139E+002, 4.3013513E+002, 4.4124780E+002, 4.3649207E+002, 4.4224332E+002, 4.3373209E+002, 3.1679272E+002, 4.0904895E+002
 1.0500101E+003, 4.0167984E+002, 3.7655737E+002, 4.2822229E+002, 4.3828250E+002, 4.3388422E+002, 4.3919217E+002, 4.3143832E+002, 3.1380881E+002, 4.0440768E+002
 1.0600170E+003, 3.9281445E+002, 3.7366833E+002, 4.2550867E+002, 4.3467908E+002, 4.3063586E+002, 4.3550827E+002, 4.2842627E+002, 3.1053711E+002, 3.9975729E+002
 1.0700275E+003, 3.8394284E+002, 3.7057654E+002, 4.2245514E+002, 4.3086627E+002, 4.2715787E+002, 4.3162204E+002, 4.2513434E+002, 3.0732056E+002, 3.9539410E+002
 1.0800300E+003, 3.7507333E+002, 3.6748062E+002, 4.1925296E+002, 4.2699109E+002, 4.2359238E+002, 4.2767972E+002, 4.2172928E+002, 3.0424622E+002, 3.9135239E+002
 1.0900047E+003, 3.6621945E+002, 3.6446164E+002, 4.1598404E+002, 4.2309946E+002, 4.1998630E+002, 4.2372607E+002, 4.1827469E+002, 3.0131854E+002, 3.8758286E+002
 1.1000328E+003, 3.5735446E+002, 3.6151776E+002, 4.1263974E+002, 4.1915604E+002, 4.1630869E+002, 4.1972440E+002, 4.1474930E+002, 2.9850076E+002, 3.8399939E+002
 1.1100377E+003, 3.4847528E+002, 3.5865271E+002, 4.0923309E+002, 4.1516556E+002, 4.1256778E+002, 4.1567862E+002, 4.1116269E+002, 2.9576730E+002, 3.8056268E+002
 1.1200008E+003, 3.3962589E+002, 3.5585278E+002, 4.0576022E+002, 4.1111713E+002, 4.0875455E+002, 4.1157739E+002, 4.0750793E+002, 2.9309180E+002, 3.7722318E+002
 1.1300107E+003, 3.3077350E+002, 3.5310162E+002, 4.0221448E+002, 4.0700400E+002, 4.0486557E+002, 4.0741342E+002, 4.0377939E+002, 2.9045578E+002, 3.7395547E+002
 1.1400266E+003, 3.2189877E+002, 3.5037799E+002, 3.9858069E+002, 4.0280661E+002, 4.0088312E+002, 4.0316681E+002, 3.9996021E+002, 2.8783521E+002, 3.7071643E+002
 1.1500286E+003, 3.1302621E+002, 3.4767963E+002, 3.9486804E+002, 3.9853769E+002, 3.9682092E+002, 3.9885022E+002, 3.9606161E+002, 2.8523285E+002, 3.6750336E+002
 1.1600150E+003, 3.0416785E+002, 3.4502020E+002, 3.9110934E+002, 3.9423856E+002, 3.9272165E+002, 3.9450507E+002, 3.9212128E+002, 2.8265891E+002, 3.6434067E+002
 1.1700024E+003, 2.9531516E+002, 3.4237137E+002, 3.8727991E+002, 3.8987430E+002, 3.8855057E+002, 3.9009595E+002, 3.8810971E+002, 2.8008807E+002, 3.6116742E+002
 1.1800080E+003, 2.8645474E+002, 3.3971375E+002, 3.8336337E+002, 3.8542804E+002, 3.8429196E+002, 3.8560587E+002, 3.8401074E+002, 2.7751038E+002, 3.5796338E+002
 1.1900262E+003, 2.7758032E+002, 3.3703864E+002, 3.7935684E+002, 3.8089716E+002, 3.7994360E+002, 3.8103214E+002, 3.7982175E+002, 2.7492145E+002, 3.5471698E+002
 1.2000168E+003, 2.6871222E+002, 3.3434363E+002, 3.7526706E+002, 3.7629074E+002, 3.7551477E+002, 3.7638400E+002, 3.7555069E+002, 2.7232413E+002, 3.5143057E+002
 1.2100082E+003, 2.5985596E+002, 3.3164697E+002, 3.7112738E+002, 3.7165143E+002, 3.7104886E+002, 3.7170410E+002, 3.7123584E+002, 2.6973618E+002, 3.4814432E+002
 1.2200021E+003, 2.5099886E+002, 3.2893774E+002, 3.6693079E+002, 3.6696530E+002, 3.6653168E+002, 3.6697842E+002, 3.6686697E+002, 2.6714551E+002, 3.4482620E+002
 1.2300196E+003, 2.4213011E+002, 3.2620554E+002, 3.6266827E+002, 3.6222311E+002, 3.6195453E+002, 3.6219754E+002, 3.6243512E+002, 2.6454886E+002, 3.4147006E+002
