s,C,C,C,C,C,C,C,C,C
Time,"Air Temp","IRSN_1","IRSN_2","TRAC_2","TRAC_3","TRAC_4","VTT_1","GRS_2","NRC_1"
 0.0000000E+000, 2.0000000E+001, 2.0000000E+001, 2.0000000E+001, 2.0000000E+001, 2.0000000E+001, 2.0000000E+001, 2.0000000E+001, 2.0000000E+001, 2.0000000E+001
 1.0025171E+001, 2.2293053E+001, 2.0000122E+001, 2.0000273E+001, 2.0000017E+001, 2.0000011E+001, 2.0000017E+001, 2.0000267E+001, 2.0000040E+001, 2.0000517E+001
 2.0050341E+001, 2.6849949E+001, 2.0004496E+001, 2.0007908E+001, 2.0001455E+001, 2.0001144E+001, 2.0001476E+001, 2.0007769E+001, 2.0002048E+001, 2.0011152E+001
 3.0011248E+001, 3.7264812E+001, 2.0024382E+001, 2.0039576E+001, 2.0011301E+001, 2.0009285E+001, 2.0011463E+001, 2.0038971E+001, 2.0012537E+001, 2.0049570E+001
 4.0036419E+001, 5.9531349E+001, 2.0081457E+001, 2.0129862E+001, 2.0043245E+001, 2.0036280E+001, 2.0043844E+001, 2.0128092E+001, 2.0043266E+001, 2.0157763E+001
 5.0024290E+001, 8.2162025E+001, 2.0239079E+001, 2.0376312E+001, 2.0136097E+001, 2.0115246E+001, 2.0137941E+001, 2.0371792E+001, 2.0129311E+001, 2.0444014E+001
 6.0018922E+001, 1.0474773E+002, 2.0567520E+001, 2.0872917E+001, 2.0357841E+001, 2.0306801E+001, 2.0362543E+001, 2.0863811E+001, 2.0316519E+001, 2.0985737E+001
 7.0007657E+001, 1.2734003E+002, 2.1108566E+001, 2.1669510E+001, 2.0767818E+001, 2.0666254E+001, 2.0777700E+001, 2.1653444E+001, 2.0637087E+001, 2.1820593E+001
 8.0032795E+001, 1.4996959E+002, 2.1896763E+001, 2.2807123E+001, 2.1415831E+001, 2.1240343E+001, 2.1433847E+001, 2.2781378E+001, 2.1119915E+001, 2.2980583E+001
 9.0001035E+001, 1.7257652E+002, 2.2974159E+001, 2.4347141E+001, 2.2349247E+001, 2.2073277E+001, 2.2378891E+001, 2.4309481E+001, 2.1792057E+001, 2.4526421E+001
 1.0000257E+002, 1.9515685E+002, 2.4380848E+001, 2.6336647E+001, 2.3624477E+001, 2.3218052E+001, 2.3669836E+001, 2.6284197E+001, 2.2681959E+001, 2.6487841E+001
 1.1000761E+002, 2.1581871E+002, 2.6137146E+001, 2.8787582E+001, 2.5279890E+001, 2.4711042E+001, 2.5345766E+001, 2.8714441E+001, 2.3815825E+001, 2.8873480E+001
 1.2001067E+002, 2.1852087E+002, 2.8271044E+001, 3.1737738E+001, 2.7354202E+001, 2.6587452E+001, 2.7445976E+001, 3.1640528E+001, 2.5215891E+001, 3.1699305E+001
 1.3001312E+002, 2.1688106E+002, 3.0624603E+001, 3.4926201E+001, 2.9819849E+001, 2.8832384E+001, 2.9942226E+001, 3.4807842E+001, 2.6807741E+001, 3.4620224E+001
 1.4002501E+002, 2.1524055E+002, 3.2964832E+001, 3.8050018E+001, 3.2511162E+001, 3.1307089E+001, 3.2666325E+001, 3.7918385E+001, 2.8436983E+001, 3.7370049E+001
 1.5001712E+002, 2.1360089E+002, 3.5211323E+001, 4.1035480E+001, 3.5281269E+001, 3.3876488E+001, 3.5469479E+001, 4.0898930E+001, 3.0027021E+001, 3.9942757E+001
 1.6001455E+002, 2.1196223E+002, 3.7366337E+001, 4.3906475E+001, 3.8071148E+001, 3.6481709E+001, 3.8291798E+001, 4.3773438E+001, 3.1560751E+001, 4.2383533E+001
 1.7002664E+002, 2.1087935E+002, 3.9439503E+001, 4.6680367E+001, 4.0863850E+001, 3.9104202E+001, 4.1115963E+001, 4.6558769E+001, 3.3036896E+001, 4.4706841E+001
 1.8001610E+002, 2.1836043E+002, 4.1402134E+001, 4.9311108E+001, 4.3622799E+001, 4.1707909E+001, 4.3905277E+001, 4.9204777E+001, 3.4446438E+001, 4.6873192E+001
 1.9002275E+002, 2.2876231E+002, 4.3342651E+001, 5.1950676E+001, 4.6350674E+001, 4.4286617E+001, 4.6662918E+001, 5.1860912E+001, 3.5829731E+001, 4.9091568E+001
 2.0000728E+002, 2.3916240E+002, 4.5400520E+001, 5.4792545E+001, 4.9141865E+001, 4.6919018E+001, 4.9484482E+001, 5.4719334E+001, 3.7271217E+001, 5.1539192E+001
 2.1002144E+002, 2.4956563E+002, 4.7642212E+001, 5.7908192E+001, 5.2088856E+001, 4.9690655E+001, 5.2463291E+001, 5.7851631E+001, 3.8821674E+001, 5.4255230E+001
 2.2001580E+002, 2.5997430E+002, 5.0092133E+001, 6.1320770E+001, 5.5242153E+001, 5.2650650E+001, 5.5650318E+001, 6.1280369E+001, 4.0503220E+001, 5.7250835E+001
 2.3001877E+002, 2.7037735E+002, 5.2757572E+001, 6.5024933E+001, 5.8628948E+001, 5.5826309E+001, 5.9073021E+001, 6.4999176E+001, 4.2330193E+001, 6.0506279E+001
 2.4000469E+002, 2.8077597E+002, 5.5634995E+001, 6.9012405E+001, 6.2260082E+001, 5.9228443E+001, 6.2742619E+001, 6.8998940E+001, 4.4309448E+001, 6.4015289E+001
 2.5001381E+002, 2.9117749E+002, 5.8755329E+001, 7.3327858E+001, 6.6158989E+001, 6.2879677E+001, 6.6682571E+001, 7.3326645E+001, 4.6454857E+001, 6.7829285E+001
 2.6001093E+002, 3.0158481E+002, 6.2109417E+001, 7.7946548E+001, 7.0341927E+001, 6.6797668E+001, 7.0909187E+001, 7.7955795E+001, 4.8770699E+001, 7.1905823E+001
 2.7001171E+002, 3.1198801E+002, 6.5709686E+001, 8.2891113E+001, 7.4814270E+001, 7.0987480E+001, 7.5427925E+001, 8.2910667E+001, 5.1260578E+001, 7.6278976E+001
 2.8000351E+002, 3.2238885E+002, 6.9554962E+001, 8.8154236E+001, 7.9587196E+001, 7.5461670E+001, 8.0249855E+001, 8.8183868E+001, 5.3924892E+001, 8.0939117E+001
 2.9001387E+002, 3.3279456E+002, 7.3672363E+001, 9.3769211E+001, 8.4678574E+001, 8.0238060E+001, 8.5392731E+001, 9.3809425E+001, 5.6781326E+001, 8.5921638E+001
 3.0001390E+002, 3.4320413E+002, 7.8069191E+001, 9.9732796E+001, 9.0099136E+001, 8.5328758E+001, 9.0867165E+001, 9.9785172E+001, 5.9840195E+001, 9.1237221E+001
 3.1000518E+002, 3.5360443E+002, 8.2752380E+001, 1.0606583E+002, 9.5856964E+001, 9.0744125E+001, 9.6680664E+001, 1.0613210E+002, 6.3103958E+001, 9.6881912E+001
 3.2000320E+002, 3.6400293E+002, 8.7707085E+001, 1.1273551E+002, 1.0196192E+002, 9.6493523E+001, 1.0284354E+002, 1.1281664E+002, 6.6569160E+001, 1.0282285E+002
 3.3000252E+002, 3.7440594E+002, 9.2946358E+001, 1.1977080E+002, 1.0841403E+002, 1.0257787E+002, 1.0935561E+002, 1.1986802E+002, 7.0244476E+001, 1.0909557E+002
 3.4001395E+002, 3.8481558E+002, 9.8488663E+001, 1.2719837E+002, 1.1523679E+002, 1.0901718E+002, 1.1624081E+002, 1.2731348E+002, 7.4141289E+001, 1.1572198E+002
 3.5000757E+002, 3.9029446E+002, 1.0433433E+002, 1.3499631E+002, 1.2243207E+002, 1.1581633E+002, 1.2350056E+002, 1.3513242E+002, 7.8264168E+001, 1.2268477E+002
 3.6000764E+002, 3.9088336E+002, 1.1037962E+002, 1.4296141E+002, 1.2995474E+002, 1.2294476E+002, 1.3108807E+002, 1.4312582E+002, 8.2572784E+001, 1.2973222E+002
 3.7001572E+002, 3.9147186E+002, 1.1639394E+002, 1.5080112E+002, 1.3765454E+002, 1.3027596E+002, 1.3885091E+002, 1.5100467E+002, 8.6922295E+001, 1.3656712E+002
 3.8000845E+002, 3.9206009E+002, 1.2226183E+002, 1.5840228E+002, 1.4537015E+002, 1.3765997E+002, 1.4662604E+002, 1.5865628E+002, 9.1209877E+001, 1.4313264E+002
 3.9000722E+002, 3.9264807E+002, 1.2795684E+002, 1.6573256E+002, 1.5300511E+002, 1.4500505E+002, 1.5431570E+002, 1.6604758E+002, 9.5405869E+001, 1.4944371E+002
 4.0001125E+002, 3.9323639E+002, 1.3348293E+002, 1.7283995E+002, 1.6053085E+002, 1.5227669E+002, 1.6189148E+002, 1.7322382E+002, 9.9496658E+001, 1.5552530E+002
 4.1000560E+002, 3.9382458E+002, 1.3883815E+002, 1.7970828E+002, 1.6791812E+002, 1.5944193E+002, 1.6932430E+002, 1.8016776E+002, 1.0347439E+002, 1.6139130E+002
 4.2000955E+002, 3.9441278E+002, 1.4403108E+002, 1.8632431E+002, 1.7513696E+002, 1.6647346E+002, 1.7658348E+002, 1.8686432E+002, 1.0735268E+002, 1.6704865E+002
 4.3001018E+002, 3.9500113E+002, 1.4907919E+002, 1.9273891E+002, 1.8217641E+002, 1.7335684E+002, 1.8365816E+002, 1.9336273E+002, 1.1113541E+002, 1.7254274E+002
 4.4001084E+002, 3.9558939E+002, 1.5398714E+002, 1.9895853E+002, 1.8904002E+002, 1.8009077E+002, 1.9055238E+002, 1.9966887E+002, 1.1482150E+002, 1.7787584E+002
 4.5000266E+002, 3.9617743E+002, 1.5877898E+002, 2.0503001E+002, 1.9573615E+002, 1.8667900E+002, 1.9727486E+002, 2.0582799E+002, 1.1841903E+002, 1.8309009E+002
 4.6001727E+002, 3.9676584E+002, 1.6345302E+002, 2.1090929E+002, 2.0227252E+002, 1.9312929E+002, 2.0383366E+002, 2.1179427E+002, 1.2193738E+002, 1.8814636E+002
 4.7001758E+002, 3.9735452E+002, 1.6799953E+002, 2.1657936E+002, 2.0861731E+002, 1.9941260E+002, 2.1019659E+002, 2.1754845E+002, 1.2537663E+002, 1.9304671E+002
 4.8000712E+002, 3.9794244E+002, 1.7244008E+002, 2.2209517E+002, 2.1475954E+002, 2.0551445E+002, 2.1635294E+002, 2.2314578E+002, 1.2874268E+002, 1.9785400E+002
 4.9000095E+002, 3.9853021E+002, 1.7680556E+002, 2.2751561E+002, 2.2075171E+002, 2.1147867E+002, 2.2235608E+002, 2.2864783E+002, 1.3204292E+002, 2.0258812E+002
 5.0000238E+002, 3.9911829E+002, 1.8106488E+002, 2.3274442E+002, 2.2658830E+002, 2.1730600E+002, 2.2820003E+002, 2.3395615E+002, 1.3527426E+002, 2.0716441E+002
 5.1001487E+002, 3.9970676E+002, 1.8522470E+002, 2.3780827E+002, 2.3223874E+002, 2.2296680E+002, 2.3385425E+002, 2.3909354E+002, 1.3844061E+002, 2.1163557E+002
 5.2001124E+002, 3.9916278E+002, 1.8930070E+002, 2.4273732E+002, 2.3771957E+002, 2.2847006E+002, 2.3933615E+002, 2.4409099E+002, 1.4154463E+002, 2.1600793E+002
 5.3002086E+002, 3.9749579E+002, 1.9325955E+002, 2.4745930E+002, 2.4301877E+002, 2.3380638E+002, 2.4463382E+002, 2.4887611E+002, 1.4457661E+002, 2.2020926E+002
 5.4001876E+002, 3.9582843E+002, 1.9707597E+002, 2.5195612E+002, 2.4811430E+002, 2.3895706E+002, 2.4972473E+002, 2.5343430E+002, 1.4751373E+002, 2.2421414E+002
 5.5001209E+002, 3.9416254E+002, 2.0069072E+002, 2.5613162E+002, 2.5295563E+002, 2.4387614E+002, 2.5455814E+002, 2.5766522E+002, 1.5032332E+002, 2.2794458E+002
 5.6001721E+002, 3.9249597E+002, 2.0413889E+002, 2.6007471E+002, 2.5753760E+002, 2.4855278E+002, 2.5912924E+002, 2.6165915E+002, 1.5301042E+002, 2.3149788E+002
 5.7001804E+002, 3.9082880E+002, 2.0744362E+002, 2.6381946E+002, 2.6188541E+002, 2.5300690E+002, 2.6346371E+002, 2.6545132E+002, 1.5558537E+002, 2.3489871E+002
 5.8001025E+002, 3.8916263E+002, 2.1060515E+002, 2.6736365E+002, 2.6600949E+002, 2.5724850E+002, 2.6757208E+002, 2.6904175E+002, 1.5804855E+002, 2.3813728E+002
 5.9000514E+002, 3.8749710E+002, 2.1361537E+002, 2.7067221E+002, 2.6990417E+002, 2.6127350E+002, 2.7144870E+002, 2.7238956E+002, 1.6040166E+002, 2.4118301E+002
 6.0001577E+002, 3.8583005E+002, 2.1649348E+002, 2.7379431E+002, 2.7357089E+002, 2.6507974E+002, 2.7509549E+002, 2.7554626E+002, 1.6265186E+002, 2.4409239E+002
 6.1001853E+002, 3.8416220E+002, 2.1925475E+002, 2.7675482E+002, 2.7703079E+002, 2.6868625E+002, 2.7853354E+002, 2.7854028E+002, 1.6480644E+002, 2.4688762E+002
 6.2000387E+002, 3.8249652E+002, 2.2192206E+002, 2.7959921E+002, 2.8030463E+002, 2.7211224E+002, 2.8178372E+002, 2.8141766E+002, 1.6687492E+002, 2.4960725E+002
 6.3000579E+002, 3.8083090E+002, 2.2447769E+002, 2.8225339E+002, 2.8341046E+002, 2.7537628E+002, 2.8486438E+002, 2.8409805E+002, 1.6885977E+002, 2.5214452E+002
 6.4001088E+002, 3.7916364E+002, 2.2688243E+002, 2.8466168E+002, 2.8629160E+002, 2.7842523E+002, 2.8771924E+002, 2.8652164E+002, 1.7074638E+002, 2.5449644E+002
 6.5001114E+002, 3.7749652E+002, 2.2918364E+002, 2.8693048E+002, 2.8897232E+002, 2.8127496E+002, 2.9037283E+002, 2.8880310E+002, 1.7254707E+002, 2.5674329E+002
 6.6000138E+002, 3.7583069E+002, 2.3136629E+002, 2.8901740E+002, 2.9145682E+002, 2.8393271E+002, 2.9282919E+002, 2.9089697E+002, 1.7426088E+002, 2.5885498E+002
 6.7000532E+002, 3.7416443E+002, 2.3346056E+002, 2.9097861E+002, 2.9376730E+002, 2.8641806E+002, 2.9511069E+002, 2.9286337E+002, 1.7590170E+002, 2.6087448E+002
 6.8001414E+002, 3.7249673E+002, 2.3546599E+002, 2.9280042E+002, 2.9591278E+002, 2.8874194E+002, 2.9722641E+002, 2.9468512E+002, 1.7747398E+002, 2.6279086E+002
 6.9000342E+002, 3.7083026E+002, 2.3738686E+002, 2.9449796E+002, 2.9789612E+002, 2.9090363E+002, 2.9917966E+002, 2.9637793E+002, 1.7897961E+002, 2.6461960E+002
 7.0001416E+002, 3.6916351E+002, 2.3923555E+002, 2.9608505E+002, 2.9974118E+002, 2.9292682E+002, 3.0099420E+002, 2.9795941E+002, 1.8042650E+002, 2.6635742E+002
 7.1001821E+002, 3.6749570E+002, 2.4100591E+002, 2.9756024E+002, 3.0143994E+002, 2.9480533E+002, 3.0266202E+002, 2.9942465E+002, 1.8181284E+002, 2.6802420E+002
 7.2001318E+002, 3.6582910E+002, 2.4270178E+002, 2.9891895E+002, 3.0301562E+002, 2.9655856E+002, 3.0420670E+002, 3.0076968E+002, 1.8314082E+002, 2.6957498E+002
 7.3000924E+002, 3.6416318E+002, 2.4428728E+002, 3.0009302E+002, 3.0443396E+002, 2.9815530E+002, 3.0559427E+002, 3.0191989E+002, 1.8439786E+002, 2.7096884E+002
 7.4000879E+002, 3.6249680E+002, 2.4579297E+002, 3.0116565E+002, 3.0569415E+002, 2.9959140E+002, 3.0682397E+002, 3.0296655E+002, 1.8559254E+002, 2.7231345E+002
 7.5001767E+002, 3.6082913E+002, 2.4727849E+002, 3.0223596E+002, 3.0686420E+002, 3.0093036E+002, 3.0796353E+002, 3.0401489E+002, 1.8675175E+002, 2.7366687E+002
 7.6000816E+002, 3.5790704E+002, 2.4870541E+002, 3.0321210E+002, 3.0794830E+002, 3.0218152E+002, 3.0901727E+002, 3.0496643E+002, 1.8786723E+002, 2.7493039E+002
 7.7000758E+002, 3.5374258E+002, 2.5001006E+002, 3.0396399E+002, 3.0890637E+002, 3.0330969E+002, 3.0994504E+002, 3.0568539E+002, 1.8891522E+002, 2.7595712E+002
 7.8000373E+002, 3.4957675E+002, 2.5117682E+002, 3.0454785E+002, 3.0967987E+002, 3.0425726E+002, 3.1068820E+002, 3.0623813E+002, 1.8986848E+002, 2.7686801E+002
 7.9000525E+002, 3.4541068E+002, 2.5222118E+002, 3.0498248E+002, 3.1031778E+002, 3.0507254E+002, 3.1129474E+002, 3.0664929E+002, 1.9072687E+002, 2.7761075E+002
 8.0001933E+002, 3.4124054E+002, 2.5309648E+002, 3.0518088E+002, 3.1077274E+002, 3.0571536E+002, 3.1171729E+002, 3.0682074E+002, 1.9146941E+002, 2.7814340E+002
 8.1001415E+002, 3.3707205E+002, 2.5384349E+002, 3.0522141E+002, 3.1104520E+002, 3.0617844E+002, 3.1195712E+002, 3.0683105E+002, 1.9211127E+002, 2.7854669E+002
 8.2000472E+002, 3.3290820E+002, 2.5447075E+002, 3.0511462E+002, 3.1115646E+002, 3.0647971E+002, 3.1203580E+002, 3.0669147E+002, 1.9265907E+002, 2.7881509E+002
 8.3001549E+002, 3.2874142E+002, 2.5497969E+002, 3.0486392E+002, 3.1111255E+002, 3.0662662E+002, 3.1195908E+002, 3.0641025E+002, 1.9311510E+002, 2.7895746E+002
 8.4001499E+002, 3.2457269E+002, 2.5538289E+002, 3.0449423E+002, 3.1092276E+002, 3.0662900E+002, 3.1173593E+002, 3.0601349E+002, 1.9348605E+002, 2.7899973E+002
 8.5002056E+002, 3.2040479E+002, 2.5566718E+002, 3.0395383E+002, 3.1058817E+002, 3.0648920E+002, 3.1136761E+002, 3.0544000E+002, 1.9377222E+002, 2.7887677E+002
 8.6000760E+002, 3.1623959E+002, 2.5583932E+002, 3.0327393E+002, 3.1009280E+002, 3.0618820E+002, 3.1083868E+002, 3.0472412E+002, 1.9397542E+002, 2.7864282E+002
 8.7001392E+002, 3.1207883E+002, 2.5591811E+002, 3.0247672E+002, 3.0945514E+002, 3.0574176E+002, 3.1016782E+002, 3.0388605E+002, 1.9410651E+002, 2.7830978E+002
 8.8000383E+002, 3.3175113E+002, 2.5591229E+002, 3.0157681E+002, 3.0868707E+002, 3.0516025E+002, 3.0936703E+002, 3.0294186E+002, 1.9417067E+002, 2.7790311E+002
 8.9000678E+002, 3.7506543E+002, 2.5621167E+002, 3.0124805E+002, 3.0791626E+002, 3.0454791E+002, 3.0856528E+002, 3.0256277E+002, 1.9435243E+002, 2.7835086E+002
 9.0001088E+002, 4.1840985E+002, 2.5768646E+002, 3.0261444E+002, 3.0772418E+002, 3.0440607E+002, 3.0835098E+002, 3.0384552E+002, 1.9521001E+002, 2.8075473E+002
 9.1001090E+002, 4.6175189E+002, 2.6091553E+002, 3.0633643E+002, 3.0874368E+002, 3.0531067E+002, 3.0936441E+002, 3.0745346E+002, 1.9721022E+002, 2.8565298E+002
 9.2001472E+002, 5.0509055E+002, 2.6625540E+002, 3.1277783E+002, 3.1147733E+002, 3.0774835E+002, 3.1211111E+002, 3.1376086E+002, 2.0067621E+002, 2.9332535E+002
 9.3000231E+002, 5.4840363E+002, 2.7391241E+002, 3.2206949E+002, 3.1627487E+002, 3.1207510E+002, 3.1694180E+002, 3.2290115E+002, 2.0584650E+002, 3.0384811E+002
 9.4000134E+002, 5.9170587E+002, 2.8412292E+002, 3.3450266E+002, 3.2340750E+002, 3.1856940E+002, 3.2412747E+002, 3.3517935E+002, 2.1294064E+002, 3.1756329E+002
 9.5001012E+002, 6.3505463E+002, 2.9714395E+002, 3.5029614E+002, 3.3320688E+002, 3.2757144E+002, 3.3399850E+002, 3.5082730E+002, 2.2221443E+002, 3.3463654E+002
 9.6001252E+002, 6.7840906E+002, 3.1309030E+002, 3.6947452E+002, 3.4586465E+002, 3.3930307E+002, 3.4674341E+002, 3.6988452E+002, 2.3386055E+002, 3.5510895E+002
 9.7000049E+002, 6.7958264E+002, 3.3184164E+002, 3.9167529E+002, 3.6143726E+002, 3.5387094E+002, 3.6241309E+002, 3.9200815E+002, 2.4796436E+002, 3.7846552E+002
 9.8000453E+002, 6.3888989E+002, 3.5110825E+002, 4.1323480E+002, 3.7920895E+002, 3.7074515E+002, 3.8027798E+002, 4.1359006E+002, 2.6344620E+002, 3.9961383E+002
 9.9000524E+002, 5.9816486E+002, 3.6644577E+002, 4.2873230E+002, 3.9622897E+002, 3.8735190E+002, 3.9736032E+002, 4.2921796E+002, 2.7721451E+002, 4.1334055E+002
 1.0000077E+003, 5.5744409E+002, 3.7682657E+002, 4.3796561E+002, 4.1019888E+002, 4.0142111E+002, 4.1135336E+002, 4.3864734E+002, 2.8776251E+002, 4.2056509E+002
 1.0100130E+003, 5.1671100E+002, 3.8290558E+002, 4.4224524E+002, 4.2061566E+002, 4.1229562E+002, 4.2176056E+002, 4.4315878E+002, 2.9506577E+002, 4.2296765E+002
 1.0200045E+003, 4.7600146E+002, 3.8557315E+002, 4.4281882E+002, 4.2769775E+002, 4.2005310E+002, 4.2880865E+002, 4.4397702E+002, 2.9955087E+002, 4.2190781E+002
 1.0300053E+003, 4.3530301E+002, 3.8555295E+002, 4.4056558E+002, 4.3184528E+002, 4.2499597E+002, 4.3290457E+002, 4.4196515E+002, 3.0168967E+002, 4.1828769E+002
 1.0400126E+003, 4.1055496E+002, 3.8344830E+002, 4.3621912E+002, 4.3347473E+002, 4.2747958E+002, 4.3446869E+002, 4.3785303E+002, 3.0191019E+002, 4.1286887E+002
 1.0500113E+003, 4.0168573E+002, 3.8010236E+002, 4.3086813E+002, 4.3308701E+002, 4.2793982E+002, 4.3400681E+002, 4.3270822E+002, 3.0077148E+002, 4.0692230E+002
 1.0600050E+003, 3.9282513E+002, 3.7647678E+002, 4.2560742E+002, 4.3143701E+002, 4.2705057E+002, 4.3228137E+002, 4.2760733E+002, 2.9900217E+002, 4.0145129E+002
 1.0700062E+003, 3.8396381E+002, 3.7293063E+002, 4.2067545E+002, 4.2910126E+002, 4.2536652E+002, 4.2987314E+002, 4.2279074E+002, 2.9700610E+002, 3.9649796E+002
 1.0800128E+003, 3.7509665E+002, 3.6950977E+002, 4.1599542E+002, 4.2632993E+002, 4.2315259E+002, 4.2703345E+002, 4.1818219E+002, 2.9492300E+002, 3.9192780E+002
 1.0900078E+003, 3.6623221E+002, 3.6624094E+002, 4.1157849E+002, 4.2327136E+002, 4.2057349E+002, 4.2390991E+002, 4.1380984E+002, 2.9281549E+002, 3.8771439E+002
 1.1000141E+003, 3.5736783E+002, 3.6305762E+002, 4.0723373E+002, 4.1997568E+002, 4.1770224E+002, 4.2055212E+002, 4.0947403E+002, 2.9069012E+002, 3.8364746E+002
 1.1100114E+003, 3.4850253E+002, 3.5994153E+002, 4.0294586E+002, 4.1645468E+002, 4.1456268E+002, 4.1697162E+002, 4.0516809E+002, 2.8854922E+002, 3.7972906E+002
 1.1200013E+003, 3.3964383E+002, 3.5688971E+002, 3.9871912E+002, 4.1274860E+002, 4.1120200E+002, 4.1320834E+002, 4.0090366E+002, 2.8639789E+002, 3.7596341E+002
 1.1300142E+003, 3.3077948E+002, 3.5390265E+002, 3.9455673E+002, 4.0890976E+002, 4.0768134E+002, 4.0931369E+002, 3.9669452E+002, 2.8423834E+002, 3.7231949E+002
 1.1400106E+003, 3.2191122E+002, 3.5093195E+002, 3.9034793E+002, 4.0494055E+002, 4.0401392E+002, 4.0528992E+002, 3.9242252E+002, 2.8206021E+002, 3.6868219E+002
 1.1500130E+003, 3.1304810E+002, 3.4791571E+002, 3.8595834E+002, 4.0080597E+002, 4.0016690E+002, 4.0110266E+002, 3.8794009E+002, 2.7984698E+002, 3.6490109E+002
 1.1600086E+003, 3.0418518E+002, 3.4487506E+002, 3.8150897E+002, 3.9646124E+002, 3.9609091E+002, 3.9670776E+002, 3.8338638E+002, 2.7759738E+002, 3.6119821E+002
 1.1700097E+003, 2.9532260E+002, 3.4192044E+002, 3.7718661E+002, 3.9205850E+002, 3.9193570E+002, 3.9225604E+002, 3.7896667E+002, 2.7535764E+002, 3.5764197E+002
 1.1800136E+003, 2.8645697E+002, 3.3895807E+002, 3.7276605E+002, 3.8758041E+002, 3.8769492E+002, 3.8773056E+002, 3.7443130E+002, 2.7310815E+002, 3.5401968E+002
 1.1900201E+003, 2.7758829E+002, 3.3600806E+002, 3.6836194E+002, 3.8302151E+002, 3.8336002E+002, 3.8312585E+002, 3.6991663E+002, 2.7084576E+002, 3.5046301E+002
 1.2000064E+003, 2.6872760E+002, 3.3308820E+002, 3.6398932E+002, 3.7843341E+002, 3.7898584E+002, 3.7849295E+002, 3.6543695E+002, 2.6858414E+002, 3.4695694E+002
 1.2100092E+003, 2.5986865E+002, 3.3015799E+002, 3.5956635E+002, 3.7381409E+002, 3.7457681E+002, 3.7382944E+002, 3.6090863E+002, 2.6631198E+002, 3.4339792E+002
 1.2200213E+003, 2.5099797E+002, 3.2719305E+002, 3.5503394E+002, 3.6911179E+002, 3.7008118E+002, 3.6908426E+002, 3.5625513E+002, 2.6401706E+002, 3.3976297E+002
 1.2300072E+003, 2.4213501E+002, 3.2420389E+002, 3.5043597E+002, 3.6432959E+002, 3.6549463E+002, 3.6426117E+002, 3.5153195E+002, 2.6170593E+002, 3.3608975E+002
