s,C,C,C,C,C,C,C
Time,"Air Temp","VTT_1","IRSN_1","TRAC_2","TRAC_4","GRS_2","NRC_2"
 0.0000000E+000, 2.5000000E+001, 2.5000000E+001, 2.5000000E+001, 2.5000000E+001, 2.5000000E+001, 2.5000000E+001, 2.5000000E+001
 1.0200000E+001, 2.5421646E+001, 2.5000021E+001, 2.5000017E+001, 2.5000027E+001, 2.5000027E+001, 2.5000027E+001, 2.5000210E+001
 2.0200000E+001, 2.6216000E+001, 2.5000620E+001, 2.5000519E+001, 2.5000723E+001, 2.5000732E+001, 2.5000689E+001, 2.5003206E+001
 3.0200000E+001, 2.9182381E+001, 2.5003263E+001, 2.5002737E+001, 2.5003736E+001, 2.5003790E+001, 2.5003305E+001, 2.5011595E+001
 4.0108047E+001, 4.4140026E+001, 2.5012112E+001, 2.5010155E+001, 2.5013853E+001, 2.5014055E+001, 2.5012241E+001, 2.5046993E+001
 5.0039759E+001, 6.0876141E+001, 2.5053350E+001, 2.5044724E+001, 2.5061033E+001, 2.5061920E+001, 2.5053986E+001, 2.5196650E+001
 6.0042252E+001, 7.7611809E+001, 2.5171009E+001, 2.5143646E+001, 2.5194107E+001, 2.5196903E+001, 2.5165789E+001, 2.5518736E+001
 7.0053894E+001, 9.4463234E+001, 2.5404428E+001, 2.5340193E+001, 2.5455511E+001, 2.5462023E+001, 2.5375704E+001, 2.6040812E+001
 8.0067267E+001, 1.1127869E+002, 2.5783829E+001, 2.5659452E+001, 2.5877190E+001, 2.5889633E+001, 2.5702015E+001, 2.6774233E+001
 9.0030348E+001, 1.2807579E+002, 2.6332083E+001, 2.6119703E+001, 2.6483116E+001, 2.6503996E+001, 2.6157213E+001, 2.7733042E+001
 1.0003335E+002, 1.4487544E+002, 2.7073635E+001, 2.6740021E+001, 2.7299215E+001, 2.7331335E+001, 2.6755667E+001, 2.8935402E+001
 1.1001256E+002, 1.6168008E+002, 2.8031265E+001, 2.7537682E+001, 2.8349617E+001, 2.8396063E+001, 2.7510340E+001, 3.0401684E+001
 1.2001396E+002, 1.7308279E+002, 2.9227873E+001, 2.8529808E+001, 2.9658636E+001, 2.9722752E+001, 2.8434374E+001, 3.2142609E+001
 1.3005297E+002, 1.7920461E+002, 3.0659563E+001, 2.9710787E+001, 3.1219183E+001, 3.1304129E+001, 2.9509680E+001, 3.4038860E+001
 1.4002304E+002, 1.8532103E+002, 3.2265694E+001, 3.1026766E+001, 3.2962280E+001, 3.3070171E+001, 3.0674757E+001, 3.5971195E+001
 1.5003834E+002, 1.9142325E+002, 3.4004089E+001, 3.2438828E+001, 3.4842346E+001, 3.4974628E+001, 3.1896603E+001, 3.7936241E+001
 1.6001548E+002, 1.9753117E+002, 3.5855034E+001, 3.3927605E+001, 3.6839172E+001, 3.6997002E+001, 3.3163574E+001, 3.9946823E+001
 1.7000837E+002, 2.0363210E+002, 3.7810799E+001, 3.5485073E+001, 3.8945713E+001, 3.9130123E+001, 3.4475460E+001, 4.2025852E+001
 1.8001542E+002, 2.0974617E+002, 3.9874107E+001, 3.7112556E+001, 4.1165367E+001, 4.1377422E+001, 3.5835754E+001, 4.4176586E+001
 1.9004440E+002, 2.1586488E+002, 4.2046448E+001, 3.8810913E+001, 4.3500111E+001, 4.3740883E+001, 3.7247456E+001, 4.6410706E+001
 2.0004783E+002, 2.2198688E+002, 4.4325302E+001, 4.0578300E+001, 4.5947395E+001, 4.6217907E+001, 3.8710312E+001, 4.8731087E+001
 2.1001205E+002, 2.3103131E+002, 4.6709030E+001, 4.2414242E+001, 4.8505741E+001, 4.8806976E+001, 4.0226383E+001, 5.1152054E+001
 2.2000085E+002, 2.4292419E+002, 4.9227928E+001, 4.4344158E+001, 5.1209389E+001, 5.1542786E+001, 4.1825062E+001, 5.3778225E+001
 2.3002581E+002, 2.5485121E+002, 5.1955902E+001, 4.6430405E+001, 5.4140362E+001, 5.4508392E+001, 4.3572388E+001, 5.6742882E+001
 2.4003300E+002, 2.6679095E+002, 5.4940708E+001, 4.8714882E+001, 5.7349346E+001, 5.7755070E+001, 4.5502171E+001, 6.0044956E+001
 2.5001465E+002, 2.7870956E+002, 5.8205090E+001, 5.1218006E+001, 6.0859303E+001, 6.1305992E+001, 4.7626686E+001, 6.3684849E+001
 2.6002635E+002, 2.9062839E+002, 6.1780296E+001, 5.3965309E+001, 6.4702293E+001, 6.5193474E+001, 4.9962612E+001, 6.7668251E+001
 2.7002757E+002, 3.0255283E+002, 6.5684341E+001, 5.6970497E+001, 6.8896408E+001, 6.9435753E+001, 5.2516804E+001, 7.2002029E+001
 2.8002520E+002, 3.1447964E+002, 6.9930717E+001, 6.0244232E+001, 7.3455368E+001, 7.4046524E+001, 5.5298462E+001, 7.6707855E+001
 2.9003042E+002, 3.2640506E+002, 7.4541069E+001, 6.3803253E+001, 7.8401413E+001, 7.9048126E+001, 5.8320366E+001, 8.1797737E+001
 3.0004221E+002, 3.3834073E+002, 7.9534927E+001, 6.7662430E+001, 8.3754501E+001, 8.4460594E+001, 6.1594021E+001, 8.7285263E+001
 3.1002924E+002, 3.5025879E+002, 8.4920135E+001, 7.1827690E+001, 8.9522141E+001, 9.0291321E+001, 6.5124138E+001, 9.3176765E+001
 3.2002109E+002, 3.6216837E+002, 9.0708031E+001, 7.6307152E+001, 9.5715561E+001, 9.6551590E+001, 6.8915794E+001, 9.9472977E+001
 3.3002610E+002, 3.7409146E+002, 9.6925362E+001, 8.1121605E+001, 1.0236274E+002, 1.0326949E+002, 7.2988380E+001, 1.0621196E+002
 3.4001539E+002, 3.8260864E+002, 1.0357893E+002, 8.6276543E+001, 1.0946950E+002, 1.1045063E+002, 7.7345284E+001, 1.1336720E+002
 3.5003289E+002, 3.8779083E+002, 1.1062617E+002, 9.1734100E+001, 1.1698371E+002, 1.1804153E+002, 8.1929909E+001, 1.2068375E+002
 3.6002515E+002, 3.9297250E+002, 1.1794049E+002, 9.7385361E+001, 1.2476095E+002, 1.2589488E+002, 8.6625587E+001, 1.2796592E+002
 3.7000466E+002, 3.9814514E+002, 1.2541554E+002, 1.0313837E+002, 1.3268375E+002, 1.3389072E+002, 9.1356483E+001, 1.3519775E+002
 3.8003530E+002, 4.0332330E+002, 1.3303546E+002, 1.0897977E+002, 1.4073567E+002, 1.4201210E+002, 9.6127113E+001, 1.4246046E+002
 3.9000261E+002, 4.0850284E+002, 1.4075923E+002, 1.1488223E+002, 1.4887418E+002, 1.5021608E+002, 1.0092554E+002, 1.4974934E+002
 4.0003572E+002, 4.1368027E+002, 1.4857599E+002, 1.2084411E+002, 1.5708783E+002, 1.5849104E+002, 1.0575580E+002, 1.5708981E+002
 4.1003856E+002, 4.1886887E+002, 1.5649515E+002, 1.2687864E+002, 1.6538826E+002, 1.6684897E+002, 1.1063854E+002, 1.6451651E+002
 4.2001835E+002, 4.2404532E+002, 1.6447339E+002, 1.3296031E+002, 1.7372977E+002, 1.7524380E+002, 1.1555503E+002, 1.7198834E+002
 4.3002564E+002, 4.2921774E+002, 1.7252829E+002, 1.3910826E+002, 1.8213095E+002, 1.8369432E+002, 1.2052451E+002, 1.7953351E+002
 4.4001592E+002, 4.3439481E+002, 1.8065279E+002, 1.4532280E+002, 1.9058363E+002, 1.9219221E+002, 1.2554851E+002, 1.8714908E+002
 4.5002281E+002, 4.3957242E+002, 1.8883482E+002, 1.5159901E+002, 1.9907474E+002, 2.0072433E+002, 1.3062662E+002, 1.9481424E+002
 4.6000019E+002, 4.4474545E+002, 1.9706050E+002, 1.5793002E+002, 2.0758984E+002, 2.0927621E+002, 1.3575859E+002, 2.0254727E+002
 4.7002143E+002, 4.4992618E+002, 2.0534825E+002, 1.6433191E+002, 2.1614973E+002, 2.1786905E+002, 1.4096248E+002, 2.1035808E+002
 4.8000362E+002, 4.5510544E+002, 2.1368230E+002, 1.7079771E+002, 2.2473642E+002, 2.2648463E+002, 1.4623074E+002, 2.1822423E+002
 4.9003257E+002, 4.6028772E+002, 2.2205307E+002, 1.7732411E+002, 2.3333929E+002, 2.3511229E+002, 1.5156409E+002, 2.2613254E+002
 5.0003027E+002, 4.6547092E+002, 2.3046385E+002, 1.8391650E+002, 2.4196323E+002, 2.4375716E+002, 1.5697081E+002, 2.3413087E+002
 5.1002781E+002, 4.7064883E+002, 2.3889259E+002, 1.9056073E+002, 2.5058524E+002, 2.5239626E+002, 1.6243915E+002, 2.4214256E+002
 5.2002093E+002, 4.7582629E+002, 2.4732648E+002, 1.9725090E+002, 2.5919006E+002, 2.6101413E+002, 1.6796672E+002, 2.5016945E+002
 5.3001499E+002, 4.8100305E+002, 2.5576434E+002, 2.0398792E+002, 2.6777838E+002, 2.6961163E+002, 1.7355621E+002, 2.5823849E+002
 5.4000635E+002, 4.8617490E+002, 2.6421060E+002, 2.1077719E+002, 2.7635620E+002, 2.7819519E+002, 1.7921155E+002, 2.6635526E+002
 5.5003265E+002, 4.9135831E+002, 2.7267142E+002, 2.1762654E+002, 2.8492914E+002, 2.8677042E+002, 1.8493800E+002, 2.7450003E+002
 5.6000883E+002, 4.9653580E+002, 2.8112729E+002, 2.2452155E+002, 2.9347916E+002, 2.9531955E+002, 1.9072420E+002, 2.8269696E+002
 5.7001455E+002, 5.0171182E+002, 2.8957336E+002, 2.3146017E+002, 3.0200134E+002, 3.0383780E+002, 1.9656723E+002, 2.9089200E+002
 5.8003249E+002, 5.0689575E+002, 2.9802704E+002, 2.3845877E+002, 3.1051340E+002, 3.1234296E+002, 2.0248439E+002, 2.9914709E+002
 5.9003392E+002, 5.1208069E+002, 3.0647644E+002, 2.4550829E+002, 3.1900531E+002, 3.2082535E+002, 2.0846591E+002, 3.0741473E+002
 6.0001454E+002, 5.1725415E+002, 3.1487393E+002, 2.5257224E+002, 3.2742487E+002, 3.2923245E+002, 2.1448015E+002, 3.1560236E+002
 6.1000324E+002, 5.2242365E+002, 3.2322272E+002, 2.5965268E+002, 3.3577795E+002, 3.3757040E+002, 2.2053320E+002, 3.2379419E+002
 6.2002964E+002, 5.2500000E+002, 3.3156183E+002, 2.6678131E+002, 3.4410687E+002, 3.4588193E+002, 2.2665114E+002, 3.3199109E+002
 6.3003209E+002, 5.2500000E+002, 3.3978171E+002, 2.7386627E+002, 3.5228851E+002, 3.5404285E+002, 2.3272038E+002, 3.3976752E+002
 6.4002337E+002, 5.2500000E+002, 3.4772336E+002, 2.8076260E+002, 3.6015536E+002, 3.6188495E+002, 2.3858841E+002, 3.4701108E+002
 6.5002978E+002, 5.2500000E+002, 3.5531592E+002, 2.8740128E+002, 3.6763605E+002, 3.6933664E+002, 2.4419688E+002, 3.5371024E+002
 6.6000147E+002, 5.2500000E+002, 3.6252368E+002, 2.9374542E+002, 3.7470157E+002, 3.7636963E+002, 2.4953130E+002, 3.5999194E+002
 6.7002294E+002, 5.3142975E+002, 3.6937885E+002, 2.9982025E+002, 3.8139203E+002, 3.8302484E+002, 2.5462920E+002, 3.6598004E+002
 6.8001222E+002, 5.4421008E+002, 3.7606689E+002, 3.0578833E+002, 3.8792172E+002, 3.8951926E+002, 2.5971402E+002, 3.7253760E+002
 6.9000280E+002, 5.5697272E+002, 3.8297998E+002, 3.1200250E+002, 3.9472238E+002, 3.9628891E+002, 2.6518225E+002, 3.8023004E+002
 7.0000212E+002, 5.6974915E+002, 3.9035648E+002, 3.1869446E+002, 4.0203244E+002, 4.0357285E+002, 2.7122067E+002, 3.8888431E+002
 7.1002182E+002, 5.8253979E+002, 3.9826956E+002, 3.2594565E+002, 4.0991296E+002, 4.1143121E+002, 2.7786765E+002, 3.9835208E+002
 7.2002250E+002, 5.9532672E+002, 4.0673163E+002, 3.3377283E+002, 4.1836813E+002, 4.1986737E+002, 2.8511658E+002, 4.0854468E+002
 7.3002612E+002, 6.0810651E+002, 4.1570374E+002, 3.4214328E+002, 4.2734790E+002, 4.2882999E+002, 2.9291913E+002, 4.1928162E+002
 7.4000930E+002, 6.2087427E+002, 4.2515778E+002, 3.5102744E+002, 4.3681985E+002, 4.3828598E+002, 3.0124768E+002, 4.3057394E+002
 7.5001785E+002, 6.3365167E+002, 4.3506683E+002, 3.6039673E+002, 4.4675085E+002, 4.4820129E+002, 3.1006900E+002, 4.4224435E+002
 7.6000629E+002, 6.4055859E+002, 4.4535605E+002, 3.7017902E+002, 4.5705865E+002, 4.5849280E+002, 3.1931366E+002, 4.5419592E+002
 7.7002310E+002, 6.4167004E+002, 4.5581693E+002, 3.8017883E+002, 4.6750961E+002, 4.6892474E+002, 3.2872250E+002, 4.6548538E+002
 7.8002354E+002, 6.4278223E+002, 4.6600235E+002, 3.8997867E+002, 4.7762057E+002, 4.7901080E+002, 3.3782043E+002, 4.7549478E+002
 7.9001466E+002, 6.4389270E+002, 4.7563815E+002, 3.9930396E+002, 4.8711966E+002, 4.8847897E+002, 3.4637595E+002, 4.8437646E+002
 8.0000895E+002, 6.4500293E+002, 4.8466928E+002, 4.0808478E+002, 4.9596863E+002, 4.9729251E+002, 3.5437274E+002, 4.9241309E+002
 8.1000650E+002, 6.4611340E+002, 4.9314709E+002, 4.1635599E+002, 5.0423792E+002, 5.0552365E+002, 3.6188397E+002, 4.9990540E+002
 8.2000154E+002, 6.4722443E+002, 5.0116064E+002, 4.2419534E+002, 5.1203064E+002, 5.1327710E+002, 3.6900241E+002, 5.0698413E+002
 8.3002847E+002, 6.4833667E+002, 5.0872144E+002, 4.3162457E+002, 5.1935474E+002, 5.2056079E+002, 3.7573715E+002, 5.1350128E+002
 8.4000003E+002, 6.4944763E+002, 5.1582892E+002, 4.3864825E+002, 5.2621460E+002, 5.2737976E+002, 3.8210294E+002, 5.1962543E+002
 8.5002202E+002, 6.5055835E+002, 5.2255334E+002, 4.4533508E+002, 5.3268756E+002, 5.3381195E+002, 3.8817111E+002, 5.2547919E+002
 8.6000888E+002, 6.5167010E+002, 5.2893524E+002, 4.5173007E+002, 5.3881409E+002, 5.3989807E+002, 3.9397714E+002, 5.3102582E+002
 8.7001594E+002, 6.5278107E+002, 5.3499060E+002, 4.5785330E+002, 5.4461194E+002, 5.4565613E+002, 3.9953900E+002, 5.3630054E+002
 8.8000436E+002, 6.5389160E+002, 5.4072491E+002, 4.6371649E+002, 5.5008447E+002, 5.5108942E+002, 4.0486026E+002, 5.4129083E+002
 8.9002068E+002, 6.5500262E+002, 5.4618567E+002, 4.6936407E+002, 5.5528473E+002, 5.5625122E+002, 4.0999017E+002, 5.4611829E+002
 9.0000616E+002, 6.5611401E+002, 5.5138306E+002, 4.7480884E+002, 5.6022156E+002, 5.6115057E+002, 4.1493271E+002, 5.5070959E+002
 9.1002078E+002, 6.5722516E+002, 5.5632959E+002, 4.8006369E+002, 5.6490851E+002, 5.6580103E+002, 4.1970123E+002, 5.5514441E+002
 9.2001559E+002, 6.5833673E+002, 5.6107617E+002, 4.8517392E+002, 5.6940088E+002, 5.7025818E+002, 4.2434299E+002, 5.5947845E+002
 9.3000399E+002, 6.5944733E+002, 5.6561108E+002, 4.9012997E+002, 5.7368396E+002, 5.7450708E+002, 4.2883908E+002, 5.6361951E+002
 9.4000169E+002, 6.5366479E+002, 5.6993732E+002, 4.9493536E+002, 5.7775861E+002, 5.7854846E+002, 4.3318591E+002, 5.6746521E+002
 9.5000103E+002, 6.4102960E+002, 5.7381512E+002, 4.9937753E+002, 5.8135254E+002, 5.8210742E+002, 4.3708704E+002, 5.6998083E+002
 9.6002491E+002, 6.2838824E+002, 5.7680389E+002, 5.0305115E+002, 5.8398944E+002, 5.8470422E+002, 4.4007785E+002, 5.7063739E+002
 9.7001800E+002, 6.1574640E+002, 5.7870874E+002, 5.0575854E+002, 5.8548340E+002, 5.8615314E+002, 4.4202112E+002, 5.6982666E+002
 9.8002039E+002, 6.0311304E+002, 5.7955756E+002, 5.0751108E+002, 5.8588544E+002, 5.8650677E+002, 4.4299985E+002, 5.6802551E+002
 9.9001799E+002, 5.9048053E+002, 5.7948383E+002, 5.0842899E+002, 5.8534772E+002, 5.8591882E+002, 4.4317468E+002, 5.6546057E+002
 1.0000031E+003, 5.7786005E+002, 5.7857251E+002, 5.0859769E+002, 5.8396179E+002, 5.8448169E+002, 4.4264349E+002, 5.6223938E+002
 1.0100119E+003, 5.6523651E+002, 5.7692108E+002, 5.0811609E+002, 5.8183148E+002, 5.8229950E+002, 4.4151398E+002, 5.5850940E+002
 1.0200062E+003, 5.5259906E+002, 5.7461212E+002, 5.0706891E+002, 5.7904242E+002, 5.7945850E+002, 4.3987018E+002, 5.5432593E+002
 1.0300315E+003, 5.3995648E+002, 5.7172278E+002, 5.0553406E+002, 5.7567584E+002, 5.7604010E+002, 4.3779318E+002, 5.4986499E+002
 1.0400069E+003, 5.2732196E+002, 5.6837146E+002, 5.0362106E+002, 5.7185718E+002, 5.7217059E+002, 4.3539371E+002, 5.4520026E+002
 1.0500332E+003, 5.1468616E+002, 5.6457056E+002, 5.0135120E+002, 5.6759180E+002, 5.6785480E+002, 4.3267389E+002, 5.4020312E+002
 1.0600363E+003, 5.0204028E+002, 5.6035443E+002, 4.9875867E+002, 5.6291528E+002, 5.6312823E+002, 4.2967059E+002, 5.3498431E+002
 1.0700214E+003, 4.8941150E+002, 5.5577625E+002, 4.9588794E+002, 5.5788281E+002, 5.5804633E+002, 4.2642722E+002, 5.2956152E+002
 1.0800072E+003, 4.7680258E+002, 5.5088104E+002, 4.9277911E+002, 5.5254199E+002, 5.5265674E+002, 4.2298746E+002, 5.2405292E+002
 1.0900369E+003, 4.6416550E+002, 5.4569971E+002, 4.8946277E+002, 5.4692291E+002, 5.4698956E+002, 4.1937500E+002, 5.1836609E+002
 1.1000191E+003, 4.5151682E+002, 5.4023676E+002, 4.8593970E+002, 5.4102655E+002, 5.4104553E+002, 4.1558560E+002, 5.1249408E+002
 1.1100342E+003, 4.3889194E+002, 5.3454382E+002, 4.8225009E+002, 5.3491022E+002, 5.3488226E+002, 4.1167059E+002, 5.0660837E+002
 1.1200183E+003, 4.2625916E+002, 5.2867249E+002, 4.7843701E+002, 5.2862769E+002, 5.2855377E+002, 4.0767041E+002, 5.0067706E+002
 1.1300048E+003, 4.1748419E+002, 5.2261871E+002, 4.7449405E+002, 5.2216937E+002, 5.2205011E+002, 4.0356854E+002, 4.9460629E+002
 1.1400373E+003, 4.1247821E+002, 5.1645508E+002, 4.7048401E+002, 5.1562024E+002, 5.1545709E+002, 3.9946002E+002, 4.8885397E+002
 1.1500101E+003, 4.0747879E+002, 5.1035809E+002, 4.6655527E+002, 5.0917029E+002, 5.0896637E+002, 3.9550031E+002, 4.8350287E+002
 1.1600011E+003, 4.0248776E+002, 5.0440274E+002, 4.6277194E+002, 5.0289301E+002, 5.0265179E+002, 3.9173383E+002, 4.7846237E+002
 1.1700250E+003, 3.9748425E+002, 4.9856491E+002, 4.5911783E+002, 4.9675644E+002, 4.9648071E+002, 3.8812494E+002, 4.7358469E+002
 1.1800332E+003, 3.9247537E+002, 4.9284549E+002, 4.5558572E+002, 4.9075824E+002, 4.9045050E+002, 3.8466022E+002, 4.6887784E+002
 1.1900137E+003, 3.8747879E+002, 4.8725323E+002, 4.5217206E+002, 4.8490530E+002, 4.8456778E+002, 3.8133139E+002, 4.6429974E+002
 1.2000287E+003, 3.8247949E+002, 4.8179312E+002, 4.4887650E+002, 4.7920432E+002, 4.7883926E+002, 3.7814435E+002, 4.5993900E+002
 1.2100384E+003, 3.7747336E+002, 4.7644382E+002, 4.4567676E+002, 4.7362881E+002, 4.7323810E+002, 3.7506650E+002, 4.5562350E+002
 1.2200016E+003, 3.7248126E+002, 4.7122156E+002, 4.4257431E+002, 4.6819620E+002, 4.6778162E+002, 3.7210498E+002, 4.5145541E+002
 1.2300232E+003, 3.6748248E+002, 4.6608661E+002, 4.3953455E+002, 4.6286160E+002, 4.6242447E+002, 3.6921924E+002, 4.4726590E+002
 1.2400143E+003, 3.6248004E+002, 4.6099252E+002, 4.3651361E+002, 4.5757452E+002, 4.5711566E+002, 3.6636847E+002, 4.4305252E+002
 1.2500207E+003, 3.5748221E+002, 4.5596024E+002, 4.3352094E+002, 4.5235971E+002, 4.5188010E+002, 3.6357281E+002, 4.3892728E+002
 1.2600236E+003, 3.5247940E+002, 4.5100528E+002, 4.3056827E+002, 4.4723456E+002, 4.4673541E+002, 3.6084610E+002, 4.3488962E+002
 1.2700383E+003, 3.4747418E+002, 4.4612054E+002, 4.2764749E+002, 4.4218927E+002, 4.4167163E+002, 3.5817508E+002, 4.3087073E+002
 1.2800088E+003, 3.4247690E+002, 4.4130179E+002, 4.2475076E+002, 4.3721829E+002, 4.3668292E+002, 3.5555154E+002, 4.2687802E+002
 1.2900251E+003, 3.3748239E+002, 4.3652823E+002, 4.2186069E+002, 4.3229871E+002, 4.3174628E+002, 3.5295770E+002, 4.2285794E+002
 1.3000127E+003, 3.3248151E+002, 4.3179218E+002, 4.1897006E+002, 4.2742346E+002, 4.2685452E+002, 3.5039230E+002, 4.1889493E+002
 1.3100218E+003, 3.2748114E+002, 4.2710059E+002, 4.1608289E+002, 4.2259894E+002, 4.2201407E+002, 3.4785571E+002, 4.1491544E+002
 1.3200424E+003, 3.2247382E+002, 4.2243808E+002, 4.1318781E+002, 4.1780905E+002, 4.1720868E+002, 3.4533942E+002, 4.1095435E+002
 1.3300271E+003, 3.1747238E+002, 4.1783133E+002, 4.1030429E+002, 4.1308249E+002, 4.1246732E+002, 3.4286374E+002, 4.0705847E+002
 1.3400137E+003, 3.1247998E+002, 4.1327792E+002, 4.0743066E+002, 4.0841513E+002, 4.0778571E+002, 3.4042215E+002, 4.0317975E+002
 1.3500299E+003, 3.0747632E+002, 4.0876163E+002, 4.0455661E+002, 4.0379013E+002, 4.0314688E+002, 3.3800586E+002, 3.9931674E+002
 1.3600098E+003, 3.0248160E+002, 4.0429123E+002, 4.0168820E+002, 3.9921646E+002, 3.9855988E+002, 3.3562030E+002, 3.9550381E+002
 1.3700141E+003, 2.9748257E+002, 3.9987341E+002, 3.9883154E+002, 3.9470071E+002, 3.9403134E+002, 3.3326895E+002, 3.9169479E+002
 1.3800384E+003, 2.9247501E+002, 3.9547098E+002, 3.9595813E+002, 3.9020230E+002, 3.8952023E+002, 3.3092227E+002, 3.8787619E+002
 1.3900340E+003, 2.8747089E+002, 3.9111160E+002, 3.9308936E+002, 3.8575198E+002, 3.8505765E+002, 3.2860513E+002, 3.8411151E+002
 1.4000342E+003, 2.8247302E+002, 3.8680585E+002, 3.9023462E+002, 3.8136050E+002, 3.8065436E+002, 3.2632446E+002, 3.8040866E+002
 1.4100052E+003, 2.7748044E+002, 3.8256424E+002, 3.8740405E+002, 3.7703900E+002, 3.7632166E+002, 3.2408844E+002, 3.7676605E+002
 1.4200197E+003, 2.7248248E+002, 3.7836996E+002, 3.8458591E+002, 3.7276852E+002, 3.7204034E+002, 3.2188171E+002, 3.7312845E+002
 1.4300092E+003, 2.6748190E+002, 3.7420370E+002, 3.8176428E+002, 3.6852765E+002, 3.6778879E+002, 3.1968765E+002, 3.6949835E+002
 1.4400230E+003, 2.6248093E+002, 3.7008881E+002, 3.7895871E+002, 3.6434280E+002, 3.6359366E+002, 3.1752933E+002, 3.6592014E+002
 1.4500110E+003, 2.5747977E+002, 3.6599884E+002, 3.7614764E+002, 3.6018326E+002, 3.5942389E+002, 3.1537772E+002, 3.6230618E+002
 1.4600338E+003, 2.5247830E+002, 3.6193619E+002, 3.7333368E+002, 3.5605325E+002, 3.5528381E+002, 3.1324158E+002, 3.5872809E+002
 1.4700005E+003, 2.4747926E+002, 3.5791180E+002, 3.7052612E+002, 3.5196405E+002, 3.5118472E+002, 3.1112738E+002, 3.5516495E+002
 1.4800156E+003, 2.4248442E+002, 3.5391132E+002, 3.6771399E+002, 3.4789975E+002, 3.4711060E+002, 3.0902313E+002, 3.5161526E+002
 1.4900154E+003, 2.3748093E+002, 3.4993686E+002, 3.6490106E+002, 3.4386389E+002, 3.4306506E+002, 3.0693570E+002, 3.4809073E+002
 1.5000221E+003, 2.3247827E+002, 3.4599222E+002, 3.6209042E+002, 3.3985934E+002, 3.3905099E+002, 3.0486371E+002, 3.4457199E+002
 1.5100114E+003, 2.2747830E+002, 3.4207748E+002, 3.5928278E+002, 3.3588651E+002, 3.3506873E+002, 3.0280890E+002, 3.4109540E+002
 1.5200290E+003, 2.2247893E+002, 3.3820255E+002, 3.5648822E+002, 3.3195676E+002, 3.3112985E+002, 3.0078241E+002, 3.3767285E+002
 1.5300353E+003, 2.1747089E+002, 3.3436563E+002, 3.5370630E+002, 3.2806723E+002, 3.2723141E+002, 2.9877960E+002, 3.3425845E+002
 1.5400073E+003, 2.1247578E+002, 3.3055923E+002, 3.5092966E+002, 3.2420816E+002, 3.2336346E+002, 2.9678806E+002, 3.3083865E+002
