s,C,C,C,C,C,C,C
Time,"Air Temp","VTT_1","IRSN_1","TRAC_2","TRAC_4","GRS_2","NRC_2"
 0.0000000E+000, 2.5000000E+001, 2.5000000E+001, 2.5000000E+001, 2.5000000E+001, 2.5000000E+001, 2.5000000E+001, 2.5000000E+001
 1.0200000E+001, 2.5416000E+001, 2.4999559E+001, 2.4999634E+001, 2.4999483E+001, 2.4999475E+001, 2.4999487E+001, 2.4997347E+001
 2.0200000E+001, 2.6224001E+001, 2.4998510E+001, 2.4998743E+001, 2.4998327E+001, 2.4998302E+001, 2.4998655E+001, 2.4997854E+001
 3.0200000E+001, 2.9276909E+001, 2.5000172E+001, 2.5000126E+001, 2.5000307E+001, 2.5000313E+001, 2.5000710E+001, 2.5006866E+001
 4.0087976E+001, 4.4221081E+001, 2.5008932E+001, 2.5007473E+001, 2.5010393E+001, 2.5010544E+001, 2.5009911E+001, 2.5044958E+001
 5.0057491E+001, 6.0890347E+001, 2.5053743E+001, 2.5044649E+001, 2.5061665E+001, 2.5062519E+001, 2.5054661E+001, 2.5212608E+001
 6.0049493E+001, 7.7654449E+001, 2.5185068E+001, 2.5152969E+001, 2.5209938E+001, 2.5212749E+001, 2.5175013E+001, 2.5576746E+001
 7.0009167E+001, 9.4423538E+001, 2.5445906E+001, 2.5367310E+001, 2.5501358E+001, 2.5507896E+001, 2.5398638E+001, 2.6168421E+001
 8.0004032E+001, 1.1119839E+002, 2.5872700E+001, 2.5716564E+001, 2.5974443E+001, 2.5986872E+001, 2.5746399E+001, 2.7007486E+001
 9.0028268E+001, 1.2803178E+002, 2.6494825E+001, 2.6223906E+001, 2.6659832E+001, 2.6680634E+001, 2.6234087E+001, 2.8101110E+001
 1.0001142E+002, 1.4485660E+002, 2.7330069E+001, 2.6903246E+001, 2.7575705E+001, 2.7607563E+001, 2.6870670E+001, 2.9458044E+001
 1.1005454E+002, 1.6169737E+002, 2.8406685E+001, 2.7776060E+001, 2.8752283E+001, 2.8798176E+001, 2.7673998E+001, 3.1110336E+001
 1.2000235E+002, 1.7309177E+002, 2.9738777E+001, 2.8852852E+001, 3.0203865E+001, 3.0266962E+001, 2.8650106E+001, 3.3043110E+001
 1.3002517E+002, 1.7919312E+002, 3.1315548E+001, 3.0123312E+001, 3.1915785E+001, 3.1998968E+001, 2.9778212E+001, 3.5127800E+001
 1.4003472E+002, 1.8531422E+002, 3.3081192E+001, 3.1538698E+001, 3.3824314E+001, 3.3929607E+001, 3.1001663E+001, 3.7242336E+001
 1.5001815E+002, 1.9142169E+002, 3.4968102E+001, 3.3040581E+001, 3.5856613E+001, 3.5985367E+001, 3.2269146E+001, 3.9328930E+001
 1.6004799E+002, 1.9753607E+002, 3.6960640E+001, 3.4613007E+001, 3.7998226E+001, 3.8151588E+001, 3.3577328E+001, 4.1472008E+001
 1.7000759E+002, 2.0364311E+002, 3.9050312E+001, 3.6247566E+001, 4.0241093E+001, 4.0420067E+001, 3.4924526E+001, 4.3667294E+001
 1.8003831E+002, 2.0975119E+002, 4.1248394E+001, 3.7953285E+001, 4.2597889E+001, 4.2803314E+001, 3.6326324E+001, 4.5982582E+001
 1.9000357E+002, 2.1586156E+002, 4.3564056E+001, 3.9737251E+001, 4.5078362E+001, 4.5311153E+001, 3.7787403E+001, 4.8371853E+001
 2.0004870E+002, 2.2197542E+002, 4.5979374E+001, 4.1585751E+001, 4.7663109E+001, 4.7924335E+001, 3.9293045E+001, 5.0803711E+001
 2.1004176E+002, 2.3104529E+002, 4.8509350E+001, 4.3511055E+001, 5.0369312E+001, 5.0660011E+001, 4.0860912E+001, 5.3379433E+001
 2.2002101E+002, 2.4294952E+002, 5.1176517E+001, 4.5533291E+001, 5.3222527E+001, 5.3543922E+001, 4.2516773E+001, 5.6181343E+001
 2.3000356E+002, 2.5484883E+002, 5.4044205E+001, 4.7706226E+001, 5.6292809E+001, 5.6647163E+001, 4.4313503E+001, 5.9269070E+001
 2.4000457E+002, 2.6676248E+002, 5.7158749E+001, 5.0069469E+001, 5.9630024E+001, 6.0020390E+001, 4.6284046E+001, 6.2684956E+001
 2.5003703E+002, 2.7870541E+002, 6.0561172E+001, 5.2657860E+001, 6.3276974E+001, 6.3706783E+001, 4.8454521E+001, 6.6434486E+001
 2.6000332E+002, 2.9062643E+002, 6.4260399E+001, 5.5481243E+001, 6.7241440E+001, 6.7713974E+001, 5.0831772E+001, 7.0548439E+001
 2.7002533E+002, 3.0254190E+002, 6.8292198E+001, 5.8568089E+001, 7.1560425E+001, 7.2079025E+001, 5.3436836E+001, 7.5035606E+001
 2.8003321E+002, 3.1448135E+002, 7.2681419E+001, 6.1938572E+001, 7.6258644E+001, 7.6826790E+001, 5.6281551E+001, 7.9898132E+001
 2.9003195E+002, 3.2640784E+002, 7.7426888E+001, 6.5589546E+001, 8.1335335E+001, 8.1956741E+001, 5.9359657E+001, 8.5122383E+001
 3.0002800E+002, 3.3832764E+002, 8.2548279E+001, 6.9537575E+001, 8.6809898E+001, 8.7488083E+001, 6.2688381E+001, 9.0750587E+001
 3.1002800E+002, 3.5024713E+002, 8.8056488E+001, 7.3795952E+001, 9.2690224E+001, 9.3428101E+001, 6.6280975E+001, 9.6764091E+001
 3.2002317E+002, 3.6216687E+002, 9.3960449E+001, 7.8368942E+001, 9.8986908E+001, 9.9787735E+001, 7.0136475E+001, 1.0317329E+002
 3.3003353E+002, 3.7409299E+002, 1.0028138E+002, 8.3268150E+001, 1.0572430E+002, 1.0659196E+002, 7.4267334E+001, 1.0999956E+002
 3.4001626E+002, 3.8261142E+002, 1.0702981E+002, 8.8507431E+001, 1.1290927E+002, 1.1384661E+002, 7.8688683E+001, 1.1727289E+002
 3.5001916E+002, 3.8778616E+002, 1.1415348E+002, 9.4046310E+001, 1.2047745E+002, 1.2148589E+002, 8.3339745E+001, 1.2468140E+002
 3.6000159E+002, 3.9296091E+002, 1.2152091E+002, 9.9775703E+001, 1.2827930E+002, 1.2935767E+002, 8.8103790E+001, 1.3204163E+002
 3.7003623E+002, 3.9814349E+002, 1.2904761E+002, 1.0562383E+002, 1.3622380E+002, 1.3736954E+002, 9.2927521E+001, 1.3936433E+002
 3.8000724E+002, 4.0332352E+002, 1.3669710E+002, 1.1154136E+002, 1.4428427E+002, 1.4549620E+002, 9.7772865E+001, 1.4667418E+002
 3.9003093E+002, 4.0850049E+002, 1.4444696E+002, 1.1751110E+002, 1.5243654E+002, 1.5371301E+002, 1.0263884E+002, 1.5399719E+002
 4.0002493E+002, 4.1368359E+002, 1.5227853E+002, 1.2353864E+002, 1.6065247E+002, 1.6198984E+002, 1.0754720E+002, 1.6134872E+002
 4.1001642E+002, 4.1885846E+002, 1.6016687E+002, 1.2960599E+002, 1.6890965E+002, 1.7030443E+002, 1.1248801E+002, 1.6874541E+002
 4.2001799E+002, 4.2403516E+002, 1.6814323E+002, 1.3573288E+002, 1.7724481E+002, 1.7869424E+002, 1.1747589E+002, 1.7622754E+002
 4.3002577E+002, 4.2921613E+002, 1.7620799E+002, 1.4192740E+002, 1.8565529E+002, 1.8715616E+002, 1.2252213E+002, 1.8377022E+002
 4.4002184E+002, 4.3439542E+002, 1.8432672E+002, 1.4817908E+002, 1.9410037E+002, 1.9564864E+002, 1.2762190E+002, 1.9137149E+002
 4.5001569E+002, 4.3957150E+002, 1.9249603E+002, 1.5448323E+002, 2.0257945E+002, 2.0417159E+002, 1.3276672E+002, 1.9899870E+002
 4.6000871E+002, 4.4474646E+002, 2.0071143E+002, 1.6084200E+002, 2.1108691E+002, 2.1271906E+002, 1.3796671E+002, 2.0670282E+002
 4.7000699E+002, 4.4992270E+002, 2.0898387E+002, 1.6726666E+002, 2.1963437E+002, 2.2130258E+002, 1.4323293E+002, 2.1446268E+002
 4.8000721E+002, 4.5510086E+002, 2.1726973E+002, 1.7373949E+002, 2.2816905E+002, 2.2986855E+002, 1.4855635E+002, 2.2222260E+002
 4.9002116E+002, 4.6028323E+002, 2.2559032E+002, 1.8027203E+002, 2.3672040E+002, 2.3844736E+002, 1.5394298E+002, 2.3007660E+002
 5.0001053E+002, 4.6546240E+002, 2.3394753E+002, 1.8686368E+002, 2.4529247E+002, 2.4704343E+002, 1.5938930E+002, 2.3798801E+002
 5.1000501E+002, 4.7063669E+002, 2.4231760E+002, 1.9350455E+002, 2.5385747E+002, 2.5562874E+002, 1.6489307E+002, 2.4593356E+002
 5.2001300E+002, 4.7581580E+002, 2.5073259E+002, 2.0021870E+002, 2.6245209E+002, 2.6424045E+002, 1.7047369E+002, 2.5398541E+002
 5.3001031E+002, 4.8099585E+002, 2.5918692E+002, 2.0700044E+002, 2.7106927E+002, 2.7287119E+002, 1.7612061E+002, 2.6210538E+002
 5.4002770E+002, 4.8617825E+002, 2.6766092E+002, 2.1384312E+002, 2.7968594E+002, 2.8149786E+002, 1.8183302E+002, 2.7019995E+002
 5.5002161E+002, 4.9135953E+002, 2.7611087E+002, 2.2072177E+002, 2.8825519E+002, 2.9007346E+002, 1.8759761E+002, 2.7830249E+002
 5.6000206E+002, 4.9653149E+002, 2.8455362E+002, 2.2764149E+002, 2.9680045E+002, 2.9862164E+002, 1.9341635E+002, 2.8646671E+002
 5.7002480E+002, 5.0171082E+002, 2.9299084E+002, 2.3461543E+002, 3.0531906E+002, 3.0713989E+002, 1.9930612E+002, 2.9461377E+002
 5.8002145E+002, 5.0689420E+002, 3.0141287E+002, 2.4163330E+002, 3.1380408E+002, 3.1562155E+002, 2.0525446E+002, 3.0277588E+002
 5.9002636E+002, 5.1207318E+002, 3.0980591E+002, 2.4868327E+002, 3.2224329E+002, 3.2405481E+002, 2.1125349E+002, 3.1094855E+002
 6.0001126E+002, 5.1724896E+002, 3.1815909E+002, 2.5575778E+002, 3.3062396E+002, 3.3242673E+002, 2.1729478E+002, 3.1907993E+002
 6.1001642E+002, 5.2242493E+002, 3.2648495E+002, 2.6286389E+002, 3.3896210E+002, 3.4075348E+002, 2.2338791E+002, 3.2727979E+002
 6.2002648E+002, 5.2500000E+002, 3.3479422E+002, 2.7000983E+002, 3.4726828E+002, 3.4904581E+002, 2.2953210E+002, 3.3537936E+002
 6.3002814E+002, 5.2500000E+002, 3.4295901E+002, 2.7709552E+002, 3.5540036E+002, 3.5716077E+002, 2.3561588E+002, 3.4306638E+002
 6.4000372E+002, 5.2500000E+002, 3.5084036E+002, 2.8398648E+002, 3.6321112E+002, 3.6494977E+002, 2.4149246E+002, 3.5022522E+002
 6.5001512E+002, 5.2500000E+002, 3.5837390E+002, 2.9061572E+002, 3.7063669E+002, 3.7234879E+002, 2.4710461E+002, 3.5683978E+002
 6.6001899E+002, 5.2500006E+002, 3.6555624E+002, 2.9697815E+002, 3.7768323E+002, 3.7936545E+002, 2.5247009E+002, 3.6312665E+002
 6.7001894E+002, 5.3143066E+002, 3.7238586E+002, 3.0306726E+002, 3.8435434E+002, 3.8600381E+002, 2.5759134E+002, 3.6908673E+002
 6.8001895E+002, 5.4420856E+002, 3.7905057E+002, 3.0905109E+002, 3.9086783E+002, 3.9248468E+002, 2.6270477E+002, 3.7564642E+002
 6.9000004E+002, 5.5697375E+002, 3.8595728E+002, 3.1529565E+002, 3.9767065E+002, 3.9925940E+002, 2.6821207E+002, 3.8330704E+002
 7.0000091E+002, 5.6973975E+002, 3.9330954E+002, 3.2200656E+002, 4.0496283E+002, 4.0652832E+002, 2.7428122E+002, 3.9194220E+002
 7.1000701E+002, 5.8252130E+002, 4.0121423E+002, 3.2928745E+002, 4.1284271E+002, 4.1438882E+002, 2.8097064E+002, 4.0138168E+002
 7.2000695E+002, 5.9530273E+002, 4.0962646E+002, 3.3711246E+002, 4.2124872E+002, 4.2277777E+002, 2.8823001E+002, 4.1144031E+002
 7.3002192E+002, 6.0809027E+002, 4.1857455E+002, 3.4549240E+002, 4.3020816E+002, 4.3172116E+002, 2.9606119E+002, 4.2223517E+002
 7.4002006E+002, 6.2087616E+002, 4.2803482E+002, 3.5440408E+002, 4.3969049E+002, 4.4118814E+002, 3.0443088E+002, 4.3350558E+002
 7.5002253E+002, 6.3365424E+002, 4.3790903E+002, 3.6377142E+002, 4.4958649E+002, 4.5106924E+002, 3.1326617E+002, 4.4508615E+002
 7.6000531E+002, 6.4055847E+002, 4.4817569E+002, 3.7355249E+002, 4.5987555E+002, 4.6134250E+002, 3.2252969E+002, 4.5709903E+002
 7.7000956E+002, 6.4166882E+002, 4.5863321E+002, 3.8355737E+002, 4.7032654E+002, 4.7177438E+002, 3.3195593E+002, 4.6839905E+002
 7.8001237E+002, 6.4278033E+002, 4.6879370E+002, 3.9334814E+002, 4.8041159E+002, 4.8183426E+002, 3.4105554E+002, 4.7828601E+002
 7.9001236E+002, 6.4389160E+002, 4.7840372E+002, 4.0266965E+002, 4.8988535E+002, 4.9127734E+002, 3.4962518E+002, 4.8717203E+002
 8.0001504E+002, 6.4500287E+002, 4.8744168E+002, 4.1147263E+002, 4.9874594E+002, 5.0010315E+002, 3.5766205E+002, 4.9525818E+002
 8.1001100E+002, 6.4611389E+002, 4.9590985E+002, 4.1975079E+002, 5.0700656E+002, 5.0832596E+002, 3.6518707E+002, 5.0265161E+002
 8.2001336E+002, 6.4722491E+002, 5.0387250E+002, 4.2756003E+002, 5.1474512E+002, 5.1602509E+002, 3.7227893E+002, 5.0961148E+002
 8.3002055E+002, 6.4833655E+002, 5.1136206E+002, 4.3494797E+002, 5.2199646E+002, 5.2323651E+002, 3.7899094E+002, 5.1604901E+002
 8.4001581E+002, 6.4944781E+002, 5.1846564E+002, 4.4197830E+002, 5.2885938E+002, 5.3005914E+002, 3.8538260E+002, 5.2232776E+002
 8.5000872E+002, 6.5055823E+002, 5.2518744E+002, 4.4866718E+002, 5.3533148E+002, 5.3649036E+002, 3.9145746E+002, 5.2811774E+002
 8.6001762E+002, 6.5166943E+002, 5.3157422E+002, 4.5506668E+002, 5.4146643E+002, 5.4258472E+002, 3.9727457E+002, 5.3373193E+002
 8.7000869E+002, 6.5278058E+002, 5.3763507E+002, 4.6119806E+002, 5.4727216E+002, 5.4835071E+002, 4.0284396E+002, 5.3898706E+002
 8.8001912E+002, 6.5389172E+002, 5.4339996E+002, 4.6708734E+002, 5.5278070E+002, 5.5382007E+002, 4.0819412E+002, 5.4408081E+002
 8.9001965E+002, 6.5500348E+002, 5.4887720E+002, 4.7274921E+002, 5.5799756E+002, 5.5899792E+002, 4.1333563E+002, 5.4884485E+002
 9.0000680E+002, 6.5611389E+002, 5.5406055E+002, 4.7818088E+002, 5.6291913E+002, 5.6388141E+002, 4.1826300E+002, 5.5340894E+002
 9.1000983E+002, 6.5722449E+002, 5.5900507E+002, 4.8342853E+002, 5.6760522E+002, 5.6853064E+002, 4.2302197E+002, 5.5782672E+002
 9.2002309E+002, 6.5833649E+002, 5.6370575E+002, 4.8850305E+002, 5.7204724E+002, 5.7293713E+002, 4.2762692E+002, 5.6200238E+002
 9.3001037E+002, 6.5944763E+002, 5.6822607E+002, 4.9344882E+002, 5.7631848E+002, 5.7717438E+002, 4.3212448E+002, 5.6623212E+002
 9.4001207E+002, 6.5365497E+002, 5.7256122E+002, 4.9825873E+002, 5.8040552E+002, 5.8122809E+002, 4.3648221E+002, 5.7010138E+002
 9.5001421E+002, 6.4102112E+002, 5.7642981E+002, 5.0269421E+002, 5.8398969E+002, 5.8477716E+002, 4.4037543E+002, 5.7252289E+002
 9.6000644E+002, 6.2839264E+002, 5.7936584E+002, 5.0632520E+002, 5.8657080E+002, 5.8731812E+002, 4.4332294E+002, 5.7305505E+002
 9.7000670E+002, 6.1576544E+002, 5.8120276E+002, 5.0898431E+002, 5.8799506E+002, 5.8869788E+002, 4.4522110E+002, 5.7213068E+002
 9.8000903E+002, 6.0313239E+002, 5.8198773E+002, 5.1069174E+002, 5.8833258E+002, 5.8898755E+002, 4.4615570E+002, 5.7027795E+002
 9.9000431E+002, 5.9050195E+002, 5.8188159E+002, 5.1157880E+002, 5.8776562E+002, 5.8837061E+002, 4.4630154E+002, 5.6772662E+002
 1.0000075E+003, 5.7787103E+002, 5.8096265E+002, 5.1173795E+002, 5.8637677E+002, 5.8693097E+002, 4.4576669E+002, 5.6456921E+002
 1.0100147E+003, 5.6523260E+002, 5.7930823E+002, 5.1126270E+002, 5.8424670E+002, 5.8475006E+002, 4.4464877E+002, 5.6078961E+002
 1.0200253E+003, 5.5258923E+002, 5.7698053E+002, 5.1021930E+002, 5.8144141E+002, 5.8189435E+002, 4.4301379E+002, 5.5657336E+002
 1.0300205E+003, 5.3995398E+002, 5.7404596E+002, 5.0867969E+002, 5.7802960E+002, 5.7843292E+002, 4.4093997E+002, 5.5190277E+002
 1.0400131E+003, 5.2733014E+002, 5.7058838E+002, 5.0671960E+002, 5.7410114E+002, 5.7445593E+002, 4.3850241E+002, 5.4705493E+002
 1.0500147E+003, 5.1470197E+002, 5.6672296E+002, 5.0442053E+002, 5.6977570E+002, 5.7008203E+002, 4.3576541E+002, 5.4213080E+002
 1.0600251E+003, 5.0206204E+002, 5.6251477E+002, 5.0184415E+002, 5.6511749E+002, 5.6537579E+002, 4.3278348E+002, 5.3704346E+002
 1.0700037E+003, 4.8943704E+002, 5.5797644E+002, 4.9901660E+002, 5.6013513E+002, 5.6034607E+002, 4.2958069E+002, 5.3171320E+002
 1.0800286E+003, 4.7680301E+002, 5.5309558E+002, 4.9592966E+002, 5.5481219E+002, 5.5497571E+002, 4.2614679E+002, 5.2615186E+002
 1.0900209E+003, 4.6416037E+002, 5.4790076E+002, 4.9261441E+002, 5.4918011E+002, 5.4929694E+002, 4.2252286E+002, 5.2038342E+002
 1.1000108E+003, 4.5153970E+002, 5.4240369E+002, 4.8909497E+002, 5.4325024E+002, 5.4332172E+002, 4.1874173E+002, 5.1437671E+002
 1.1100261E+003, 4.3890451E+002, 5.3660699E+002, 4.8537225E+002, 5.3702539E+002, 5.3705249E+002, 4.1480795E+002, 5.0820996E+002
 1.1200257E+003, 4.2626291E+002, 5.3056982E+002, 4.8148019E+002, 5.3056915E+002, 5.3055267E+002, 4.1074619E+002, 5.0198590E+002
 1.1300078E+003, 4.1748337E+002, 5.2438599E+002, 4.7748492E+002, 5.2398273E+002, 5.2392395E+002, 4.0662051E+002, 4.9591959E+002
 1.1400238E+003, 4.1248376E+002, 5.1814801E+002, 4.7345963E+002, 5.1736444E+002, 5.1726495E+002, 4.0251395E+002, 4.9009131E+002
 1.1500176E+003, 4.0748151E+002, 5.1195282E+002, 4.6949994E+002, 5.1081738E+002, 5.1067990E+002, 3.9854221E+002, 4.8462106E+002
 1.1600273E+003, 4.0248059E+002, 5.0590610E+002, 4.6569485E+002, 5.0445200E+002, 5.0428000E+002, 3.9477444E+002, 4.7955032E+002
 1.1700276E+003, 3.9747784E+002, 5.0002365E+002, 4.6204691E+002, 4.9827692E+002, 4.9807300E+002, 3.9118790E+002, 4.7470511E+002
 1.1800307E+003, 3.9247690E+002, 4.9428345E+002, 4.5853882E+002, 4.9226404E+002, 4.9203061E+002, 3.8776279E+002, 4.7000473E+002
 1.1900119E+003, 3.8748102E+002, 4.8867245E+002, 4.5515100E+002, 4.8639780E+002, 4.8613705E+002, 3.8447339E+002, 4.6541336E+002
 1.2000155E+003, 3.8248459E+002, 4.8316489E+002, 4.5186081E+002, 4.8065005E+002, 4.8036411E+002, 3.8129700E+002, 4.6093805E+002
 1.2100131E+003, 3.7748419E+002, 4.7776221E+002, 4.4865857E+002, 4.7502231E+002, 4.7471292E+002, 3.7822266E+002, 4.5655923E+002
 1.2200051E+003, 3.7248666E+002, 4.7245734E+002, 4.4553345E+002, 4.6950571E+002, 4.6917447E+002, 3.7524652E+002, 4.5224731E+002
 1.2300330E+003, 3.6748148E+002, 4.6722397E+002, 4.4244876E+002, 4.6407083E+002, 4.6371863E+002, 3.7232474E+002, 4.4795767E+002
 1.2400179E+003, 3.6247849E+002, 4.6204263E+002, 4.3939163E+002, 4.5869614E+002, 4.5832391E+002, 3.6945798E+002, 4.4365527E+002
 1.2500105E+003, 3.5748404E+002, 4.5694070E+002, 4.3637436E+002, 4.5341321E+002, 4.5302203E+002, 3.6665805E+002, 4.3948477E+002
 1.2600290E+003, 3.5248102E+002, 4.5188861E+002, 4.3338028E+002, 4.4818872E+002, 4.4777966E+002, 3.6391507E+002, 4.3527368E+002
 1.2700201E+003, 3.4747870E+002, 4.4691214E+002, 4.3041937E+002, 4.4305176E+002, 4.4262564E+002, 3.6123114E+002, 4.3122183E+002
 1.2800160E+003, 3.4248151E+002, 4.4202969E+002, 4.2749951E+002, 4.3801953E+002, 4.3757715E+002, 3.5860297E+002, 4.2720349E+002
 1.2900282E+003, 3.3747971E+002, 4.3718179E+002, 4.2457870E+002, 4.3302591E+002, 4.3256775E+002, 3.5599457E+002, 4.2310410E+002
 1.3000235E+003, 3.3247781E+002, 4.3234894E+002, 4.2164969E+002, 4.2805121E+002, 4.2757812E+002, 3.5341336E+002, 4.1892776E+002
 1.3100003E+003, 3.2748453E+002, 4.2754166E+002, 4.1871786E+002, 4.2310867E+002, 4.2262152E+002, 3.5086768E+002, 4.1485651E+002
 1.3200066E+003, 3.2248856E+002, 4.2282309E+002, 4.1582333E+002, 4.1826810E+002, 4.1776767E+002, 3.4838229E+002, 4.1096927E+002
 1.3300054E+003, 3.1748724E+002, 4.1817438E+002, 4.1295169E+002, 4.1350406E+002, 4.1299081E+002, 3.4593542E+002, 4.0703668E+002
 1.3400086E+003, 3.1248679E+002, 4.1353989E+002, 4.1006360E+002, 4.0875479E+002, 4.0822906E+002, 3.4350052E+002, 4.0298831E+002
 1.3500343E+003, 3.0747943E+002, 4.0891656E+002, 4.0715680E+002, 4.0402081E+002, 4.0348300E+002, 3.4108499E+002, 3.9898367E+002
 1.3600314E+003, 3.0247369E+002, 4.0433713E+002, 4.0425339E+002, 3.9933740E+002, 3.9878802E+002, 3.3870087E+002, 3.9505954E+002
 1.3700133E+003, 2.9747876E+002, 3.9982086E+002, 4.0136597E+002, 3.9472345E+002, 3.9416296E+002, 3.3635092E+002, 3.9118579E+002
 1.3800081E+003, 2.9248441E+002, 3.9537622E+002, 3.9850131E+002, 3.9018869E+002, 3.8961749E+002, 3.3403961E+002, 3.8745148E+002
 1.3900162E+003, 2.8748349E+002, 3.9099731E+002, 3.9565244E+002, 3.8572440E+002, 3.8514264E+002, 3.3175262E+002, 3.8369604E+002
 1.4000203E+003, 2.8248041E+002, 3.8663928E+002, 3.9279440E+002, 3.8128122E+002, 3.8068912E+002, 3.2948083E+002, 3.7986362E+002
 1.4100166E+003, 2.7748019E+002, 3.8229819E+002, 3.8992459E+002, 3.7685651E+002, 3.7625436E+002, 3.2722278E+002, 3.7602615E+002
 1.4200295E+003, 2.7247809E+002, 3.7797086E+002, 3.8703732E+002, 3.7244751E+002, 3.7183542E+002, 3.2497046E+002, 3.7220544E+002
 1.4300149E+003, 2.6747821E+002, 3.7366495E+002, 3.8413901E+002, 3.6806213E+002, 3.6744028E+002, 3.2273349E+002, 3.6834247E+002
 1.4400075E+003, 2.6248340E+002, 3.6938391E+002, 3.8123788E+002, 3.6370529E+002, 3.6307404E+002, 3.2052005E+002, 3.6459988E+002
 1.4500179E+003, 2.5748294E+002, 3.6516739E+002, 3.7836029E+002, 3.5941962E+002, 3.5877924E+002, 3.1834192E+002, 3.6094659E+002
 1.4600201E+003, 2.5247971E+002, 3.6100424E+002, 3.7550168E+002, 3.5519086E+002, 3.5454156E+002, 3.1619492E+002, 3.5733612E+002
 1.4700362E+003, 2.4747479E+002, 3.5689081E+002, 3.7265924E+002, 3.5101440E+002, 3.5035638E+002, 3.1407462E+002, 3.5372656E+002
 1.4800350E+003, 2.4247098E+002, 3.5281592E+002, 3.6982889E+002, 3.4687842E+002, 3.4621188E+002, 3.1198126E+002, 3.5012317E+002
 1.4900324E+003, 2.3747162E+002, 3.4874722E+002, 3.6698450E+002, 3.4274686E+002, 3.4207196E+002, 3.0989215E+002, 3.4641348E+002
 1.5000046E+003, 2.3247929E+002, 3.4469617E+002, 3.6413034E+002, 3.3863425E+002, 3.3795090E+002, 3.0780743E+002, 3.4279504E+002
 1.5100476E+003, 2.2747520E+002, 3.4066437E+002, 3.6126669E+002, 3.3454285E+002, 3.3385098E+002, 3.0572980E+002, 3.3919415E+002
 1.5200332E+003, 2.2246764E+002, 3.3666925E+002, 3.5841525E+002, 3.3049164E+002, 3.2979166E+002, 3.0368427E+002, 3.3564032E+002
 1.5300285E+003, 2.1747229E+002, 3.3271429E+002, 3.5557797E+002, 3.2648251E+002, 3.2577475E+002, 3.0166473E+002, 3.3209518E+002
 1.5400114E+003, 2.1247765E+002, 3.2879483E+002, 3.5275272E+002, 3.2251099E+002, 3.2179559E+002, 2.9966757E+002, 3.2858749E+002
