s,C,C,C,C,C,C,C
Time,"Air Temp","VTT_1","IRSN_1","TRAC_2","TRAC_4","GRS_2","NRC_2"
 0.0000000E+000, 2.5000000E+001, 2.5000000E+001, 2.5000000E+001, 2.5000000E+001, 2.5000000E+001, 2.5000000E+001, 2.5000000E+001
 1.0200000E+001, 2.5416000E+001, 2.4999569E+001, 2.4999641E+001, 2.4999495E+001, 2.4999487E+001, 2.4999498E+001, 2.4997406E+001
 2.0200000E+001, 2.6224001E+001, 2.4998545E+001, 2.4998772E+001, 2.4998365E+001, 2.4998343E+001, 2.4998688E+001, 2.4997911E+001
 3.0200000E+001, 2.9276909E+001, 2.5000174E+001, 2.5000128E+001, 2.5000307E+001, 2.5000313E+001, 2.5000698E+001, 2.5006729E+001
 4.0041616E+001, 4.4186527E+001, 2.5008772E+001, 2.5007332E+001, 2.5010208E+001, 2.5010355E+001, 2.5009720E+001, 2.5044437E+001
 5.0014294E+001, 6.0817024E+001, 2.5053827E+001, 2.5044533E+001, 2.5061768E+001, 2.5062614E+001, 2.5054386E+001, 2.5214073E+001
 6.0048336E+001, 7.7618149E+001, 2.5185715E+001, 2.5153044E+001, 2.5210669E+001, 2.5213476E+001, 2.5174618E+001, 2.5577024E+001
 7.0030114E+001, 9.4445061E+001, 2.5449272E+001, 2.5368986E+001, 2.5505245E+001, 2.5511820E+001, 2.5399633E+001, 2.6178091E+001
 8.0065719E+001, 1.1128224E+002, 2.5879789E+001, 2.5720591E+001, 2.5982550E+001, 2.5995098E+001, 2.5749601E+001, 2.7020292E+001
 9.0033959E+001, 1.2810239E+002, 2.6509926E+001, 2.6232965E+001, 2.6677181E+001, 2.6698210E+001, 2.6242996E+001, 2.8143646E+001
 1.0007530E+002, 1.4492781E+002, 2.7365431E+001, 2.6925766E+001, 2.7615685E+001, 2.7647961E+001, 2.6891478E+001, 2.9536449E+001
 1.1003947E+002, 1.6174881E+002, 2.8456757E+001, 2.7806822E+001, 2.8808292E+001, 2.8854786E+001, 2.7698694E+001, 3.1188934E+001
 1.2001242E+002, 1.7309360E+002, 2.9802565E+001, 2.8890001E+001, 3.0275150E+001, 3.0339006E+001, 2.8677776E+001, 3.3144840E+001
 1.3004414E+002, 1.7920534E+002, 3.1401985E+001, 3.0173265E+001, 3.2012211E+001, 3.2096485E+001, 2.9814939E+001, 3.5249264E+001
 1.4003679E+002, 1.8532524E+002, 3.3184555E+001, 3.1596964E+001, 3.3939808E+001, 3.4046593E+001, 3.1044302E+001, 3.7363899E+001
 1.5004190E+002, 1.9143411E+002, 3.5089237E+001, 3.3108253E+001, 3.5992195E+001, 3.6122837E+001, 3.2321167E+001, 3.9471386E+001
 1.6001489E+002, 1.9753639E+002, 3.7099537E+001, 3.4689739E+001, 3.8153698E+001, 3.8309193E+001, 3.3638325E+001, 4.1649567E+001
 1.7004760E+002, 2.0365030E+002, 3.9221962E+001, 3.6344711E+001, 4.0432034E+001, 4.0613297E+001, 3.5002956E+001, 4.3887577E+001
 1.8005115E+002, 2.0977162E+002, 4.1448074E+001, 3.8067722E+001, 4.2818600E+001, 4.3026550E+001, 3.6416962E+001, 4.6201790E+001
 1.9002551E+002, 2.1587288E+002, 4.3777355E+001, 3.9857903E+001, 4.5313274E+001, 4.5548641E+001, 3.7880817E+001, 4.8598442E+001
 2.0000467E+002, 2.2197043E+002, 4.6213203E+001, 4.1717525E+001, 4.7919685E+001, 4.8183273E+001, 3.9395332E+001, 5.1089165E+001
 2.1004521E+002, 2.3102104E+002, 4.8757713E+001, 4.3649456E+001, 5.0639420E+001, 5.0932194E+001, 4.0961201E+001, 5.3618931E+001
 2.2003323E+002, 2.4296292E+002, 5.1426506E+001, 4.5668465E+001, 5.3492290E+001, 5.3815521E+001, 4.2607147E+001, 5.6388496E+001
 2.3002244E+002, 2.5487091E+002, 5.4304096E+001, 4.7845634E+001, 5.6571991E+001, 5.6927597E+001, 4.4410629E+001, 5.9591110E+001
 2.4002340E+002, 2.6678943E+002, 5.7487015E+001, 5.0259800E+001, 5.9980911E+001, 6.0371624E+001, 4.6434525E+001, 6.3209251E+001
 2.5000477E+002, 2.7870084E+002, 6.0964218E+001, 5.2906204E+001, 6.3702965E+001, 6.4131844E+001, 4.8655666E+001, 6.7060005E+001
 2.6000408E+002, 2.9061026E+002, 6.4730927E+001, 5.5781235E+001, 6.7733696E+001, 6.8204208E+001, 5.1070320E+001, 7.1216820E+001
 2.7002404E+002, 3.0254437E+002, 6.8805244E+001, 5.8899746E+001, 7.2090820E+001, 7.2606346E+001, 5.3687977E+001, 7.5643242E+001
 2.8003178E+002, 3.1448560E+002, 7.3181175E+001, 6.2257008E+001, 7.6767845E+001, 7.7331757E+001, 5.6504490E+001, 8.0404602E+001
 2.9000517E+002, 3.2639984E+002, 7.7896507E+001, 6.5883583E+001, 8.1805588E+001, 8.2420998E+001, 5.9557457E+001, 8.5603622E+001
 3.0000761E+002, 3.3830811E+002, 8.2985596E+001, 6.9806496E+001, 8.7238998E+001, 8.7909241E+001, 6.2864719E+001, 9.1188385E+001
 3.1000816E+002, 3.5023169E+002, 8.8465210E+001, 7.4039764E+001, 9.3084091E+001, 9.3812500E+001, 6.6435760E+001, 9.7172951E+001
 3.2002110E+002, 3.6216217E+002, 9.4341698E+001, 7.8594597E+001, 9.9343590E+001, 1.0013264E+002, 7.0282288E+001, 1.0357505E+002
 3.3001650E+002, 3.7408835E+002, 1.0062317E+002, 8.3473396E+001, 1.0602767E+002, 1.0688032E+002, 7.4400558E+001, 1.1038530E+002
 3.4002525E+002, 3.8261063E+002, 1.0732806E+002, 8.8692451E+001, 1.1315395E+002, 1.1407275E+002, 7.8810432E+001, 1.1765402E+002
 3.5002396E+002, 3.8779095E+002, 1.1441309E+002, 9.4219414E+001, 1.2066676E+002, 1.2165267E+002, 8.3461014E+001, 1.2503693E+002
 3.6000566E+002, 3.9296426E+002, 1.2169866E+002, 9.9897697E+001, 1.2837019E+002, 1.2942299E+002, 8.8176941E+001, 1.3222595E+002
 3.7001724E+002, 3.9814120E+002, 1.2912257E+002, 1.0566586E+002, 1.3620190E+002, 1.3732062E+002, 9.2922142E+001, 1.3939917E+002
 3.8003265E+002, 4.0332773E+002, 1.3664957E+002, 1.1150824E+002, 1.4411806E+002, 1.4529935E+002, 9.7716423E+001, 1.4658614E+002
 3.9000349E+002, 4.0850269E+002, 1.4423262E+002, 1.1738862E+002, 1.5207228E+002, 1.5331256E+002, 1.0253275E+002, 1.5375752E+002
 4.0000678E+002, 4.1367410E+002, 1.5187288E+002, 1.2330319E+002, 1.6006993E+002, 1.6136644E+002, 1.0736701E+002, 1.6091896E+002
 4.1003147E+002, 4.1885944E+002, 1.5959236E+002, 1.2927603E+002, 1.6813342E+002, 1.6948317E+002, 1.1225322E+002, 1.6817665E+002
 4.2003287E+002, 4.2404425E+002, 1.6737231E+002, 1.3529846E+002, 1.7624228E+002, 1.7764191E+002, 1.1718465E+002, 1.7543500E+002
 4.3000405E+002, 4.2921555E+002, 1.7516002E+002, 1.4132794E+002, 1.8434268E+002, 1.8578935E+002, 1.2211552E+002, 1.8262253E+002
 4.4001332E+002, 4.3439044E+002, 1.8297058E+002, 1.4738608E+002, 1.9244881E+002, 1.9393912E+002, 1.2708053E+002, 1.8986607E+002
 4.5002901E+002, 4.3957513E+002, 1.9084346E+002, 1.5350427E+002, 2.0060480E+002, 2.0213576E+002, 1.3210612E+002, 1.9722861E+002
 4.6001239E+002, 4.4475388E+002, 1.9876166E+002, 1.5967357E+002, 2.0879282E+002, 2.1036145E+002, 1.3718433E+002, 2.0464183E+002
 4.7003722E+002, 4.4993414E+002, 2.0672475E+002, 1.6590166E+002, 2.1700941E+002, 2.1861237E+002, 1.4232321E+002, 2.1211293E+002
 4.8001233E+002, 4.5511179E+002, 2.1470808E+002, 1.7217828E+002, 2.2522636E+002, 2.2685995E+002, 1.4751836E+002, 2.1960413E+002
 4.9001943E+002, 4.6028555E+002, 2.2271790E+002, 1.7850142E+002, 2.3345604E+002, 2.3511755E+002, 1.5275772E+002, 2.2712886E+002
 5.0001546E+002, 4.6546454E+002, 2.3073947E+002, 1.8486681E+002, 2.4167871E+002, 2.4336499E+002, 1.5804080E+002, 2.3464075E+002
 5.1003611E+002, 4.7064813E+002, 2.3877605E+002, 1.9128705E+002, 2.4989726E+002, 2.5160458E+002, 1.6339653E+002, 2.4227493E+002
 5.2002678E+002, 4.7583041E+002, 2.4684943E+002, 1.9777686E+002, 2.5813797E+002, 2.5986304E+002, 1.6882996E+002, 2.5001793E+002
 5.3000692E+002, 4.8100119E+002, 2.5495229E+002, 2.0432539E+002, 2.6639484E+002, 2.6813477E+002, 1.7432176E+002, 2.5781067E+002
 5.4002345E+002, 4.8617877E+002, 2.6308871E+002, 2.1094109E+002, 2.7466888E+002, 2.7642065E+002, 1.7987900E+002, 2.6562805E+002
 5.5000496E+002, 4.9135611E+002, 2.7127490E+002, 2.1763234E+002, 2.8298288E+002, 2.8474417E+002, 1.8551112E+002, 2.7361401E+002
 5.6000710E+002, 4.9653043E+002, 2.7948755E+002, 2.2438411E+002, 2.9130731E+002, 2.9307520E+002, 1.9120015E+002, 2.8152780E+002
 5.7001915E+002, 5.0171219E+002, 2.8767938E+002, 2.3117828E+002, 2.9958618E+002, 3.0135709E+002, 1.9694627E+002, 2.8939337E+002
 5.8000004E+002, 5.0688861E+002, 2.9577448E+002, 2.3796693E+002, 3.0773889E+002, 3.0950903E+002, 2.0271680E+002, 2.9709329E+002
 5.9002389E+002, 5.1206946E+002, 3.0383026E+002, 2.4477711E+002, 3.1583899E+002, 3.1760605E+002, 2.0852956E+002, 3.0493860E+002
 6.0000485E+002, 5.1724872E+002, 3.1192297E+002, 2.5164990E+002, 3.2397214E+002, 3.2573434E+002, 2.1441071E+002, 3.1294064E+002
 6.1000388E+002, 5.2242224E+002, 3.1999661E+002, 2.5855710E+002, 3.3206992E+002, 3.3382483E+002, 2.2033647E+002, 3.2079660E+002
 6.2000876E+002, 5.2500000E+002, 3.2800375E+002, 2.6548087E+002, 3.4007800E+002, 3.4182294E+002, 2.2630472E+002, 3.2854926E+002
 6.3000601E+002, 5.2500000E+002, 3.3586957E+002, 2.7234656E+002, 3.4791705E+002, 3.4964865E+002, 2.3221790E+002, 3.3594638E+002
 6.4001222E+002, 5.2500000E+002, 3.4351700E+002, 2.7905783E+002, 3.5550946E+002, 3.5722385E+002, 2.3795401E+002, 3.4298782E+002
 6.5000488E+002, 5.2500000E+002, 3.5083945E+002, 2.8552161E+002, 3.6274045E+002, 3.6443332E+002, 2.4342850E+002, 3.4935223E+002
 6.6002693E+002, 5.2500012E+002, 3.5778961E+002, 2.9170004E+002, 3.6956790E+002, 3.7123538E+002, 2.4863542E+002, 3.5537848E+002
 6.7000346E+002, 5.3143018E+002, 3.6437973E+002, 2.9760645E+002, 3.7601184E+002, 3.7765131E+002, 2.5360994E+002, 3.6108481E+002
 6.8002403E+002, 5.4420551E+002, 3.7084363E+002, 3.0343298E+002, 3.8234299E+002, 3.8395477E+002, 2.5859512E+002, 3.6752319E+002
 6.9003517E+002, 5.5700299E+002, 3.7759378E+002, 3.0954297E+002, 3.8900711E+002, 3.9059509E+002, 2.6397855E+002, 3.7503989E+002
 7.0002228E+002, 5.6977966E+002, 3.8479388E+002, 3.1611102E+002, 3.9616595E+002, 3.9773480E+002, 2.6990543E+002, 3.8348306E+002
 7.1002643E+002, 5.8255219E+002, 3.9249466E+002, 3.2321420E+002, 4.0385446E+002, 4.0540796E+002, 2.7642676E+002, 3.9263589E+002
 7.2001719E+002, 5.9532751E+002, 4.0075491E+002, 3.3089545E+002, 4.1213046E+002, 4.1367126E+002, 2.8355530E+002, 4.0268991E+002
 7.3000289E+002, 6.0808771E+002, 4.0958112E+002, 3.3914481E+002, 4.2099139E+002, 4.2252072E+002, 2.9125046E+002, 4.1335022E+002
 7.4003022E+002, 6.2087451E+002, 4.1895938E+002, 3.4795126E+002, 4.3041666E+002, 4.3193512E+002, 2.9949731E+002, 4.2460080E+002
 7.5002386E+002, 6.3366583E+002, 4.2882190E+002, 3.5726443E+002, 4.4033139E+002, 4.4183963E+002, 3.0825760E+002, 4.3631802E+002
 7.6002367E+002, 6.4055981E+002, 4.3913074E+002, 3.6703104E+002, 4.5069281E+002, 4.5218945E+002, 3.1747476E+002, 4.4838776E+002
 7.7000931E+002, 6.4167029E+002, 4.4959375E+002, 3.7698718E+002, 4.6116946E+002, 4.6264993E+002, 3.2680594E+002, 4.5959845E+002
 7.8002456E+002, 6.4278131E+002, 4.5972089E+002, 3.8670190E+002, 4.7123761E+002, 4.7269598E+002, 3.3579150E+002, 4.6940173E+002
 7.9002601E+002, 6.4389331E+002, 4.6930768E+002, 3.9595203E+002, 4.8070380E+002, 4.8213388E+002, 3.4425412E+002, 4.7821274E+002
 8.0001457E+002, 6.4500403E+002, 4.7832275E+002, 4.0467203E+002, 4.8955774E+002, 4.9095465E+002, 3.5217175E+002, 4.8631171E+002
 8.1002559E+002, 6.4611505E+002, 4.8680176E+002, 4.1289944E+002, 4.9784753E+002, 4.9920859E+002, 3.5961801E+002, 4.9376511E+002
 8.2000004E+002, 6.4722528E+002, 4.9477966E+002, 4.2066623E+002, 5.0561676E+002, 5.0693991E+002, 3.6664029E+002, 5.0066953E+002
 8.3000508E+002, 6.4833539E+002, 5.0223956E+002, 4.2796991E+002, 5.1284766E+002, 5.1413153E+002, 3.7323111E+002, 5.0699405E+002
 8.4001152E+002, 6.4944708E+002, 5.0930197E+002, 4.3491132E+002, 5.1967639E+002, 5.2092059E+002, 3.7950577E+002, 5.1315283E+002
 8.5001351E+002, 6.5055853E+002, 5.1602209E+002, 4.4154480E+002, 5.2615906E+002, 5.2736285E+002, 3.8551611E+002, 5.1905048E+002
 8.6002809E+002, 6.5167065E+002, 5.2240100E+002, 4.4789926E+002, 5.3229523E+002, 5.3345984E+002, 3.9128018E+002, 5.2452753E+002
 8.7001926E+002, 6.5278210E+002, 5.2841748E+002, 4.5397055E+002, 5.3806372E+002, 5.3919073E+002, 3.9678622E+002, 5.2966083E+002
 8.8002174E+002, 6.5389288E+002, 5.3411060E+002, 4.5978094E+002, 5.4350696E+002, 5.4459711E+002, 4.0205002E+002, 5.3456628E+002
 8.9001501E+002, 6.5500378E+002, 5.3948810E+002, 4.6534528E+002, 5.4863019E+002, 5.4968414E+002, 4.0708972E+002, 5.3917346E+002
 9.0002509E+002, 6.5611505E+002, 5.4461584E+002, 4.7071274E+002, 5.5350708E+002, 5.5452545E+002, 4.1196069E+002, 5.4374438E+002
 9.1003145E+002, 6.5722705E+002, 5.4953778E+002, 4.7591370E+002, 5.5818121E+002, 5.5916431E+002, 4.1667447E+002, 5.4821301E+002
 9.2001590E+002, 6.5833765E+002, 5.5426471E+002, 4.8095587E+002, 5.6266254E+002, 5.6361047E+002, 4.2123273E+002, 5.5249762E+002
 9.3000534E+002, 6.5944720E+002, 5.5873309E+002, 4.8582352E+002, 5.6688098E+002, 5.6779523E+002, 4.2564325E+002, 5.5642676E+002
 9.4002748E+002, 6.5364404E+002, 5.6299597E+002, 4.9055933E+002, 5.7089758E+002, 5.7177979E+002, 4.2993768E+002, 5.6025049E+002
 9.5003191E+002, 6.4099536E+002, 5.6683148E+002, 4.9492767E+002, 5.7445367E+002, 5.7530042E+002, 4.3375821E+002, 5.6269843E+002
 9.6002693E+002, 6.2836462E+002, 5.6974622E+002, 4.9850882E+002, 5.7701898E+002, 5.7782605E+002, 4.3665662E+002, 5.6317859E+002
 9.7000618E+002, 6.1574841E+002, 5.7155273E+002, 5.0111301E+002, 5.7841748E+002, 5.7918054E+002, 4.3850323E+002, 5.6227539E+002
 9.8000797E+002, 6.0312982E+002, 5.7235718E+002, 5.0279724E+002, 5.7878229E+002, 5.7949738E+002, 4.3941302E+002, 5.6051306E+002
 9.9000226E+002, 5.9050037E+002, 5.7224084E+002, 5.0364572E+002, 5.7820544E+002, 5.7887018E+002, 4.3951065E+002, 5.5789227E+002
 1.0000038E+003, 5.7787079E+002, 5.7131091E+002, 5.0375446E+002, 5.7680542E+002, 5.7741809E+002, 4.3890607E+002, 5.5471216E+002
 1.0100127E+003, 5.6523120E+002, 5.6962659E+002, 5.0320209E+002, 5.7464233E+002, 5.7520203E+002, 4.3769208E+002, 5.5087567E+002
 1.0200025E+003, 5.5260229E+002, 5.6725781E+002, 5.0208835E+002, 5.7179407E+002, 5.7230255E+002, 4.3599344E+002, 5.4654834E+002
 1.0300287E+003, 5.3995801E+002, 5.6424908E+002, 5.0048080E+002, 5.6830505E+002, 5.6876434E+002, 4.3388455E+002, 5.4176111E+002
 1.0400063E+003, 5.2732300E+002, 5.6074396E+002, 4.9846436E+002, 5.6433002E+002, 5.6474054E+002, 4.3141159E+002, 5.3694000E+002
 1.0500257E+003, 5.1469299E+002, 5.5681671E+002, 4.9609442E+002, 5.5993842E+002, 5.6029974E+002, 4.2861252E+002, 5.3182190E+002
 1.0600055E+003, 5.0206183E+002, 5.5249060E+002, 4.9340662E+002, 5.5515247E+002, 5.5546448E+002, 4.2552740E+002, 5.2652905E+002
 1.0700286E+003, 4.8943079E+002, 5.4781879E+002, 4.9045123E+002, 5.5002771E+002, 5.5029059E+002, 4.2221332E+002, 5.2108679E+002
 1.0800135E+003, 4.7679184E+002, 5.4284113E+002, 4.8726706E+002, 5.4460455E+002, 5.4481885E+002, 4.1871078E+002, 5.1547571E+002
 1.0900307E+003, 4.6415771E+002, 5.3758063E+002, 4.8388071E+002, 5.3890680E+002, 5.3907373E+002, 4.1503827E+002, 5.0977203E+002
 1.1000346E+003, 4.5151443E+002, 5.3205634E+002, 4.8029593E+002, 5.3294934E+002, 5.3306866E+002, 4.1120343E+002, 5.0377084E+002
 1.1100300E+003, 4.3888058E+002, 5.2618152E+002, 4.7649472E+002, 5.2663837E+002, 5.2671198E+002, 4.0721710E+002, 4.9740720E+002
 1.1200393E+003, 4.2624512E+002, 5.2007294E+002, 4.7252960E+002, 5.2010675E+002, 5.2013568E+002, 4.0310550E+002, 4.9117725E+002
 1.1300462E+003, 4.1746725E+002, 5.1381580E+002, 4.6843976E+002, 5.1344104E+002, 5.1342505E+002, 3.9890219E+002, 4.8510434E+002
 1.1400034E+003, 4.1247644E+002, 5.0758417E+002, 4.6435138E+002, 5.0682907E+002, 5.0676852E+002, 3.9473975E+002, 4.7946631E+002
 1.1500176E+003, 4.0748349E+002, 5.0138129E+002, 4.6033441E+002, 5.0026917E+002, 5.0016800E+002, 3.9072098E+002, 4.7384418E+002
 1.1600052E+003, 4.0248450E+002, 4.9526932E+002, 4.5644281E+002, 4.9382983E+002, 4.9369186E+002, 3.8688690E+002, 4.6864545E+002
 1.1700257E+003, 3.9748114E+002, 4.8924207E+002, 4.5267578E+002, 4.8749503E+002, 4.8732394E+002, 3.8321631E+002, 4.6344449E+002
 1.1800021E+003, 3.9248297E+002, 4.8333655E+002, 4.4904254E+002, 4.8130667E+002, 4.8110568E+002, 3.7970782E+002, 4.5861105E+002
 1.1900108E+003, 3.8748700E+002, 4.7758838E+002, 4.4556052E+002, 4.7529871E+002, 4.7507089E+002, 3.7636884E+002, 4.5389917E+002
 1.2000008E+003, 3.8248557E+002, 4.7196539E+002, 4.4218372E+002, 4.6943320E+002, 4.6918015E+002, 3.7313864E+002, 4.4942279E+002
 1.2100220E+003, 3.7748349E+002, 4.6650403E+002, 4.3891925E+002, 4.6374789E+002, 4.6347058E+002, 3.7001816E+002, 4.4513141E+002
 1.2200178E+003, 3.7247983E+002, 4.6118335E+002, 4.3575482E+002, 4.5821780E+002, 4.5791748E+002, 3.6699966E+002, 4.4090067E+002
 1.2300115E+003, 3.6748117E+002, 4.5594086E+002, 4.3264478E+002, 4.5277283E+002, 4.5245068E+002, 3.6404315E+002, 4.3658817E+002
 1.2400157E+003, 3.6248132E+002, 4.5074677E+002, 4.2955099E+002, 4.4738367E+002, 4.4704001E+002, 3.6113077E+002, 4.3233905E+002
 1.2500014E+003, 3.5748422E+002, 4.4564865E+002, 4.2650418E+002, 4.4210446E+002, 4.4174014E+002, 3.5830121E+002, 4.2825925E+002
 1.2600388E+003, 3.5247876E+002, 4.4059055E+002, 4.2348181E+002, 4.3687057E+002, 4.3648694E+002, 3.5553012E+002, 4.2393179E+002
 1.2700062E+003, 3.4747632E+002, 4.3552625E+002, 4.2046048E+002, 4.3163525E+002, 4.3123422E+002, 3.5280200E+002, 4.1962094E+002
 1.2800316E+003, 3.4247742E+002, 4.3048508E+002, 4.1743546E+002, 4.2643060E+002, 4.2601318E+002, 3.5010001E+002, 4.1528833E+002
 1.2900121E+003, 3.3747574E+002, 4.2550702E+002, 4.1442648E+002, 4.2130249E+002, 4.2086929E+002, 3.4744183E+002, 4.1125623E+002
 1.3000405E+003, 3.3247400E+002, 4.2066550E+002, 4.1147171E+002, 4.1632605E+002, 4.1587717E+002, 3.4484677E+002, 4.0739236E+002
 1.3100208E+003, 3.2747293E+002, 4.1592807E+002, 4.0856235E+002, 4.1146179E+002, 4.1099789E+002, 3.4230640E+002, 4.0345432E+002
 1.3200383E+003, 3.2247223E+002, 4.1124509E+002, 4.0566696E+002, 4.0665674E+002, 4.0617847E+002, 3.3979733E+002, 3.9961819E+002
 1.3300406E+003, 3.1746677E+002, 4.0664594E+002, 4.0278864E+002, 4.0194278E+002, 4.0145001E+002, 3.3731750E+002, 3.9576212E+002
 1.3400339E+003, 3.1246866E+002, 4.0201810E+002, 3.9987820E+002, 3.9719489E+002, 3.9668835E+002, 3.3484955E+002, 3.9160175E+002
 1.3500060E+003, 3.0747678E+002, 3.9742404E+002, 3.9696378E+002, 3.9248987E+002, 3.9196991E+002, 3.3241568E+002, 3.8780862E+002
 1.3600030E+003, 3.0248425E+002, 3.9293878E+002, 3.9408652E+002, 3.8790466E+002, 3.8737131E+002, 3.3003183E+002, 3.8403909E+002
 1.3700052E+003, 2.9748419E+002, 3.8848380E+002, 3.9121228E+002, 3.8335172E+002, 3.8280588E+002, 3.2767313E+002, 3.8020251E+002
 1.3800075E+003, 2.9248355E+002, 3.8404007E+002, 3.8832892E+002, 3.7881113E+002, 3.7825357E+002, 3.2532898E+002, 3.7629230E+002
 1.3900136E+003, 2.8748224E+002, 3.7960532E+002, 3.8543448E+002, 3.7428183E+002, 3.7371326E+002, 3.2300327E+002, 3.7235919E+002
 1.4000538E+003, 2.8246835E+002, 3.7512610E+002, 3.8250134E+002, 3.6970538E+002, 3.6912656E+002, 3.2067603E+002, 3.6827176E+002
 1.4100225E+003, 2.7746609E+002, 3.7070374E+002, 3.7957187E+002, 3.6519589E+002, 3.6460693E+002, 3.1837399E+002, 3.6452423E+002
 1.4200050E+003, 2.7247968E+002, 3.6636380E+002, 3.7666589E+002, 3.6077441E+002, 3.6017514E+002, 3.1610831E+002, 3.6073447E+002
 1.4300038E+003, 2.6748322E+002, 3.6207507E+002, 3.7377109E+002, 3.5640927E+002, 3.5579996E+002, 3.1387601E+002, 3.5704886E+002
 1.4400071E+003, 2.6248221E+002, 3.5782571E+002, 3.7087811E+002, 3.5208530E+002, 3.5146588E+002, 3.1165945E+002, 3.5333310E+002
 1.4500161E+003, 2.5747833E+002, 3.5359146E+002, 3.6797232E+002, 3.4777594E+002, 3.4714639E+002, 3.0944763E+002, 3.4953473E+002
 1.4600069E+003, 2.5247842E+002, 3.4939044E+002, 3.6508032E+002, 3.4350369E+002, 3.4286481E+002, 3.0726309E+002, 3.4584897E+002
 1.4700150E+003, 2.4748181E+002, 3.4518167E+002, 3.6217029E+002, 3.3922119E+002, 3.3857330E+002, 3.0508789E+002, 3.4197913E+002
 1.4800319E+003, 2.4247557E+002, 3.4102228E+002, 3.5926486E+002, 3.3499603E+002, 3.3433887E+002, 3.0294058E+002, 3.3842148E+002
 1.4900021E+003, 2.3747885E+002, 3.3690164E+002, 3.5638004E+002, 3.3080963E+002, 3.3014368E+002, 3.0083475E+002, 3.3466449E+002
 1.5000166E+003, 2.3247969E+002, 3.3277246E+002, 3.5349097E+002, 3.2661417E+002, 3.2594025E+002, 2.9874796E+002, 3.3093860E+002
 1.5100182E+003, 2.2747525E+002, 3.2870374E+002, 3.5061853E+002, 3.2248645E+002, 3.2180460E+002, 2.9667795E+002, 3.2741357E+002
 1.5200048E+003, 2.2247908E+002, 3.2467264E+002, 3.4774310E+002, 3.1839575E+002, 3.1770572E+002, 2.9460583E+002, 3.2377563E+002
 1.5300497E+003, 2.1747069E+002, 3.2066129E+002, 3.4486469E+002, 3.1432663E+002, 3.1362851E+002, 2.9254279E+002, 3.2024954E+002
 1.5400245E+003, 2.1246440E+002, 3.1673035E+002, 3.4203513E+002, 3.1034402E+002, 3.0963812E+002, 2.9052441E+002, 3.1688928E+002
