s,C,C,C,C,C,C,C,C,C
Time,"Air Temp","IRSN_1","IRSN_2","TRAC_2","TRAC_3","TRAC_4","VTT_1","GRS_2","NRC_1"
 0.0000000E+000, 2.0000000E+001, 2.0000000E+001, 2.0000000E+001, 2.0000000E+001, 2.0000000E+001, 2.0000000E+001, 2.0000000E+001, 2.0000000E+001, 2.0000000E+001
 1.0200000E+001, 2.2363636E+001, 1.9999731E+001, 1.9999716E+001, 1.9999622E+001, 1.9999638E+001, 1.9999617E+001, 1.9999678E+001, 1.9999634E+001, 1.9999454E+001
 2.0200000E+001, 2.6954546E+001, 2.0001160E+001, 2.0001177E+001, 2.0001688E+001, 2.0001642E+001, 2.0001713E+001, 2.0001400E+001, 2.0001860E+001, 2.0002867E+001
 3.0026402E+001, 3.7524757E+001, 2.0013023E+001, 2.0013988E+001, 2.0017969E+001, 2.0017170E+001, 2.0018227E+001, 2.0015593E+001, 2.0016348E+001, 2.0024107E+001
 4.0057938E+001, 5.9640461E+001, 2.0050648E+001, 2.0055271E+001, 2.0069321E+001, 2.0066116E+001, 2.0070290E+001, 2.0060793E+001, 2.0059889E+001, 2.0088074E+001
 5.0017594E+001, 8.2214966E+001, 2.0159548E+001, 2.0175987E+001, 2.0218130E+001, 2.0208105E+001, 2.0221094E+001, 2.0192410E+001, 2.0182131E+001, 2.0268505E+001
 6.0065018E+001, 1.0483079E+002, 2.0399324E+001, 2.0445847E+001, 2.0544788E+001, 2.0519745E+001, 2.0551971E+001, 2.0483891E+001, 2.0437107E+001, 2.0645149E+001
 7.0014372E+001, 1.2743415E+002, 2.0818464E+001, 2.0923777E+001, 2.1113169E+001, 2.1061489E+001, 2.1127493E+001, 2.0995220E+001, 2.0862131E+001, 2.1270998E+001
 8.0008062E+001, 1.4998203E+002, 2.1455404E+001, 2.1657503E+001, 2.1973307E+001, 2.1880384E+001, 2.1998241E+001, 2.1773993E+001, 2.1485262E+001, 2.2183804E+001
 9.0023479E+001, 1.7260249E+002, 2.2350449E+001, 2.2696825E+001, 2.3178692E+001, 2.3026922E+001, 2.3218307E+001, 2.2870483E+001, 2.2339113E+001, 2.3428423E+001
 1.0001735E+002, 1.9522789E+002, 2.3541620E+001, 2.4089598E+001, 2.4780762E+001, 2.4549740E+001, 2.4839695E+001, 2.4333088E+001, 2.3454008E+001, 2.5046301E+001
 1.1000797E+002, 2.1584816E+002, 2.5055937E+001, 2.5870634E+001, 2.6814329E+001, 2.6480410E+001, 2.6897739E+001, 2.6195196E+001, 2.4849895E+001, 2.7059111E+001
 1.2001182E+002, 2.1851898E+002, 2.6915344E+001, 2.8070435E+001, 2.9308287E+001, 2.8845882E+001, 2.9421591E+001, 2.8485651E+001, 2.6537169E+001, 2.9477280E+001
 1.3000142E+002, 2.1688010E+002, 2.9006613E+001, 3.0573374E+001, 3.2107334E+001, 3.1495775E+001, 3.2253887E+001, 3.1071424E+001, 2.8365240E+001, 3.2074390E+001
 1.4003147E+002, 2.1523917E+002, 3.1162148E+001, 3.3195641E+001, 3.4996769E+001, 3.4227154E+001, 3.5177109E+001, 3.3757900E+001, 3.0171629E+001, 3.4625443E+001
 1.5003771E+002, 2.1359692E+002, 3.3283237E+001, 3.5823608E+001, 3.7859894E+001, 3.6932190E+001, 3.8073051E+001, 3.6433441E+001, 3.1889551E+001, 3.7046837E+001
 1.6004386E+002, 2.1195651E+002, 3.5328968E+001, 3.8406738E+001, 4.0654594E+001, 3.9573917E+001, 4.0899044E+001, 3.9053886E+001, 3.3507359E+001, 3.9334538E+001
 1.7002996E+002, 2.1088188E+002, 3.7289673E+001, 4.0929348E+001, 4.3371284E+001, 4.2145035E+001, 4.3645283E+001, 4.1607845E+001, 3.5030979E+001, 4.1499687E+001
 1.8004062E+002, 2.1838617E+002, 3.9160862E+001, 4.3381176E+001, 4.6003216E+001, 4.4638439E+001, 4.6305176E+001, 4.4086845E+001, 3.6466438E+001, 4.3549942E+001
 1.9003463E+002, 2.2879141E+002, 4.1003113E+001, 4.5824352E+001, 4.8635059E+001, 4.7134521E+001, 4.8964806E+001, 4.6562340E+001, 3.7894428E+001, 4.5608421E+001
 2.0000797E+002, 2.3917909E+002, 4.2915794E+001, 4.8364204E+001, 5.1391056E+001, 4.9752251E+001, 5.1749813E+001, 4.9147106E+001, 3.9416965E+001, 4.7816612E+001
 2.1003879E+002, 2.4958565E+002, 4.4967724E+001, 5.1078602E+001, 5.4351406E+001, 5.2566273E+001, 5.4741337E+001, 5.1918060E+001, 4.1083080E+001, 5.0235435E+001
 2.2000791E+002, 2.5998898E+002, 4.7184742E+001, 5.3997330E+001, 5.7542694E+001, 5.5599854E+001, 5.7966393E+001, 5.4901966E+001, 4.2904312E+001, 5.2875900E+001
 2.3002289E+002, 2.7038492E+002, 4.9588131E+001, 5.7143703E+001, 6.0986423E+001, 5.8874050E+001, 6.1446499E+001, 5.8120945E+001, 4.4894276E+001, 5.5754848E+001
 2.4003750E+002, 2.8080582E+002, 5.2208206E+001, 6.0554989E+001, 6.4721481E+001, 6.2426781E+001, 6.5220741E+001, 6.1612564E+001, 4.7074417E+001, 5.8904240E+001
 2.5002170E+002, 2.9120963E+002, 5.5047218E+001, 6.4233337E+001, 6.8746101E+001, 6.6256744E+001, 6.9287140E+001, 6.5377251E+001, 4.9441769E+001, 6.2315033E+001
 2.6001255E+002, 3.0159879E+002, 5.8101070E+001, 6.8176407E+001, 7.3054161E+001, 7.0356453E+001, 7.3639671E+001, 6.9410126E+001, 5.1988575E+001, 6.5971031E+001
 2.7002704E+002, 3.1200656E+002, 6.1389046E+001, 7.2411201E+001, 7.7677643E+001, 7.4756241E+001, 7.8310760E+001, 7.3739777E+001, 5.4729774E+001, 6.9902664E+001
 2.8003199E+002, 3.2242020E+002, 6.4927582E+001, 7.6955818E+001, 8.2635521E+001, 7.9476830E+001, 8.3319092E+001, 7.8385506E+001, 5.7680984E+001, 7.4132027E+001
 2.9002462E+002, 3.3282343E+002, 6.8718567E+001, 8.1804756E+001, 8.7915550E+001, 8.4510536E+001, 8.8651421E+001, 8.3340591E+001, 6.0847881E+001, 7.8651848E+001
 3.0002692E+002, 3.4322525E+002, 7.2773895E+001, 8.6977371E+001, 9.3542274E+001, 8.9879333E+001, 9.4332878E+001, 8.8625763E+001, 6.4235336E+001, 8.3478409E+001
 3.1003112E+002, 3.5363281E+002, 7.7099152E+001, 9.2488518E+001, 9.9531334E+001, 9.5595322E+001, 1.0037968E+002, 9.4254776E+001, 6.7842827E+001, 8.8611771E+001
 3.2001553E+002, 3.6403094E+002, 8.1689857E+001, 9.8332733E+001, 1.0587489E+002, 1.0165167E+002, 1.0678376E+002, 1.0022137E+002, 7.1668861E+001, 9.4045868E+001
 3.3001059E+002, 3.7442484E+002, 8.6560120E+001, 1.0452242E+002, 1.1258545E+002, 1.0806382E+002, 1.1355707E+002, 1.0653928E+002, 7.5731033E+001, 9.9801674E+001
 3.4003024E+002, 3.8483572E+002, 9.1731560E+001, 1.1108337E+002, 1.1968984E+002, 1.1485885E+002, 1.2072643E+002, 1.1323501E+002, 8.0048332E+001, 1.0590231E+002
 3.5001433E+002, 3.9029575E+002, 9.7194191E+001, 1.1800471E+002, 1.2717419E+002, 1.2202374E+002, 1.2827768E+002, 1.2029664E+002, 8.4608780E+001, 1.1232824E+002
 3.6001558E+002, 3.9088422E+002, 1.0286183E+002, 1.2518543E+002, 1.3490312E+002, 1.2943204E+002, 1.3607289E+002, 1.2761026E+002, 8.9305817E+001, 1.1890972E+002
 3.7000435E+002, 3.9147214E+002, 1.0857311E+002, 1.3245892E+002, 1.4268579E+002, 1.3689977E+002, 1.4391943E+002, 1.3499973E+002, 9.3962555E+001, 1.2542226E+002
 3.8002581E+002, 3.9206067E+002, 1.1422429E+002, 1.3971123E+002, 1.5040262E+002, 1.4431548E+002, 1.5169623E+002, 1.4235153E+002, 9.8499817E+001, 1.3177396E+002
 3.9001651E+002, 3.9264929E+002, 1.1975549E+002, 1.4684369E+002, 1.5794449E+002, 1.5158575E+002, 1.5929140E+002, 1.4956882E+002, 1.0289758E+002, 1.3791949E+002
 4.0003252E+002, 3.9323773E+002, 1.2514027E+002, 1.5381451E+002, 1.6527875E+002, 1.5868024E+002, 1.6667224E+002, 1.5661537E+002, 1.0715260E+002, 1.4385977E+002
 4.1002976E+002, 3.9382635E+002, 1.3038548E+002, 1.6064742E+002, 1.7244928E+002, 1.6563295E+002, 1.7388480E+002, 1.6352083E+002, 1.1126995E+002, 1.4963254E+002
 4.2000842E+002, 3.9441388E+002, 1.3548544E+002, 1.6731352E+002, 1.7942001E+002, 1.7241216E+002, 1.8089221E+002, 1.7025484E+002, 1.1526212E+002, 1.5523351E+002
 4.3002919E+002, 3.9500208E+002, 1.4045888E+002, 1.7384302E+002, 1.8623221E+002, 1.7905162E+002, 1.8773732E+002, 1.7684979E+002, 1.1913370E+002, 1.6069096E+002
 4.4001087E+002, 3.9559039E+002, 1.4529767E+002, 1.8020753E+002, 1.9284671E+002, 1.8551552E+002, 1.9438008E+002, 1.8327367E+002, 1.2289369E+002, 1.6598810E+002
 4.5002230E+002, 3.9617841E+002, 1.5001651E+002, 1.8641902E+002, 1.9928590E+002, 1.9182487E+002, 2.0084338E+002, 1.8954276E+002, 1.2655457E+002, 1.7116081E+002
 4.6000609E+002, 3.9676654E+002, 1.5462915E+002, 1.9249522E+002, 2.0556961E+002, 1.9799594E+002, 2.0714780E+002, 1.9567441E+002, 1.3012390E+002, 1.7622182E+002
 4.7002650E+002, 3.9735486E+002, 1.5915045E+002, 1.9844568E+002, 2.1170799E+002, 2.0403931E+002, 2.1330344E+002, 2.0167865E+002, 1.3361783E+002, 1.8119087E+002
 4.8003270E+002, 3.9794394E+002, 1.6357555E+002, 2.0425273E+002, 2.1767284E+002, 2.0992755E+002, 2.1928163E+002, 2.0753311E+002, 1.3703363E+002, 1.8604048E+002
 4.9002268E+002, 3.9853201E+002, 1.6789243E+002, 2.0989415E+002, 2.2344446E+002, 2.1564136E+002, 2.2506282E+002, 2.1321666E+002, 1.4036334E+002, 1.9076538E+002
 5.0002096E+002, 3.9911990E+002, 1.7211562E+002, 2.1538708E+002, 2.2904469E+002, 2.2120035E+002, 2.3066925E+002, 2.1874782E+002, 1.4361943E+002, 1.9538721E+002
 5.1000915E+002, 3.9970755E+002, 1.7626555E+002, 2.2075981E+002, 2.3451036E+002, 2.2663757E+002, 2.3613873E+002, 2.2415741E+002, 1.4681465E+002, 1.9993770E+002
 5.2001639E+002, 3.9916165E+002, 1.8034253E+002, 2.2601181E+002, 2.3983693E+002, 2.3194720E+002, 2.4146677E+002, 2.2944241E+002, 1.4994676E+002, 2.0440570E+002
 5.3000986E+002, 3.9749512E+002, 1.8433998E+002, 2.3113231E+002, 2.4500937E+002, 2.3711517E+002, 2.4663809E+002, 2.3459035E+002, 1.5300607E+002, 2.0877272E+002
 5.4000678E+002, 3.9582913E+002, 1.8820827E+002, 2.3605934E+002, 2.4995119E+002, 2.4206808E+002, 2.5157521E+002, 2.3953336E+002, 1.5594221E+002, 2.1295477E+002
 5.5002384E+002, 3.9416129E+002, 1.9191858E+002, 2.4075520E+002, 2.5462250E+002, 2.4676804E+002, 2.5623798E+002, 2.4423326E+002, 1.5873508E+002, 2.1692398E+002
 5.6000167E+002, 3.9249515E+002, 1.9547595E+002, 2.4523827E+002, 2.5906085E+002, 2.5124829E+002, 2.6066525E+002, 2.4871590E+002, 1.6138704E+002, 2.2071986E+002
 5.7002163E+002, 3.9082867E+002, 1.9888579E+002, 2.4951570E+002, 2.6327365E+002, 2.5551436E+002, 2.6486465E+002, 2.5298790E+002, 1.6390526E+002, 2.2434773E+002
 5.8001130E+002, 3.8916098E+002, 2.0216946E+002, 2.5360881E+002, 2.6728592E+002, 2.5959064E+002, 2.6886154E+002, 2.5707220E+002, 1.6631497E+002, 2.2783885E+002
 5.9000704E+002, 3.8749570E+002, 2.0531273E+002, 2.5749252E+002, 2.7106519E+002, 2.6344531E+002, 2.7262311E+002, 2.6094037E+002, 1.6860574E+002, 2.3116043E+002
 6.0003056E+002, 3.8582730E+002, 2.0832120E+002, 2.6117242E+002, 2.7461774E+002, 2.6708414E+002, 2.7615567E+002, 2.6459814E+002, 1.7078148E+002, 2.3431831E+002
 6.1001352E+002, 3.8416006E+002, 2.1119850E+002, 2.6465198E+002, 2.7795398E+002, 2.7051474E+002, 2.7947028E+002, 2.6805103E+002, 1.7284988E+002, 2.3732991E+002
 6.2000439E+002, 3.8249576E+002, 2.1395659E+002, 2.6795148E+002, 2.8109930E+002, 2.7376025E+002, 2.8259277E+002, 2.7132101E+002, 1.7481656E+002, 2.4021022E+002
 6.3002716E+002, 3.8082794E+002, 2.1659946E+002, 2.7106641E+002, 2.8403958E+002, 2.7680643E+002, 2.8550903E+002, 2.7439877E+002, 1.7669075E+002, 2.4294600E+002
 6.4001857E+002, 3.7915997E+002, 2.1913376E+002, 2.7400543E+002, 2.8679321E+002, 2.7967273E+002, 2.8823743E+002, 2.7729794E+002, 1.7847919E+002, 2.4556516E+002
 6.5003105E+002, 3.7749307E+002, 2.2157954E+002, 2.7680301E+002, 2.8940253E+002, 2.8239841E+002, 2.9082092E+002, 2.8005579E+002, 1.8019164E+002, 2.4809494E+002
 6.6002038E+002, 3.7582611E+002, 2.2393431E+002, 2.7945193E+002, 2.9185242E+002, 2.8496774E+002, 2.9324423E+002, 2.8266110E+002, 1.8182799E+002, 2.5051485E+002
 6.7001839E+002, 3.7416061E+002, 2.2619017E+002, 2.8194061E+002, 2.9412943E+002, 2.8736826E+002, 2.9549377E+002, 2.8510156E+002, 1.8338260E+002, 2.5281235E+002
 6.8001189E+002, 3.7249460E+002, 2.2834698E+002, 2.8426617E+002, 2.9622873E+002, 2.8959482E+002, 2.9756473E+002, 2.8737323E+002, 1.8485956E+002, 2.5498289E+002
 6.9002695E+002, 3.7082721E+002, 2.3041020E+002, 2.8643478E+002, 2.9816132E+002, 2.9165756E+002, 2.9946848E+002, 2.8948401E+002, 1.8626607E+002, 2.5704343E+002
 7.0002372E+002, 3.6915961E+002, 2.3239145E+002, 2.8847113E+002, 2.9995923E+002, 2.9358817E+002, 3.0123727E+002, 2.9146213E+002, 1.8760449E+002, 2.5901407E+002
 7.1002574E+002, 3.6749289E+002, 2.3429314E+002, 2.9037839E+002, 3.0162399E+002, 2.9538620E+002, 3.0287283E+002, 2.9330933E+002, 1.8887903E+002, 2.6089246E+002
 7.2003346E+002, 3.6582547E+002, 2.3612181E+002, 2.9216516E+002, 3.0316550E+002, 2.9706149E+002, 3.0438513E+002, 2.9503467E+002, 1.9009537E+002, 2.6268823E+002
 7.3002323E+002, 3.6415897E+002, 2.3787439E+002, 2.9382837E+002, 3.0457703E+002, 2.9860645E+002, 3.0576746E+002, 2.9663309E+002, 1.9125085E+002, 2.6438608E+002
 7.4000623E+002, 3.6249463E+002, 2.3954648E+002, 2.9536240E+002, 3.0585474E+002, 3.0001764E+002, 3.0701584E+002, 2.9809985E+002, 1.9234462E+002, 2.6598767E+002
 7.5002830E+002, 3.6082727E+002, 2.4116573E+002, 2.9680618E+002, 3.0704703E+002, 3.0134332E+002, 3.0817908E+002, 2.9947845E+002, 1.9339836E+002, 2.6754169E+002
 7.6001828E+002, 3.5789960E+002, 2.4273564E+002, 2.9816724E+002, 3.0815842E+002, 3.0258740E+002, 3.0926172E+002, 3.0077487E+002, 1.9441130E+002, 2.6903903E+002
 7.7002425E+002, 3.5373364E+002, 2.4421336E+002, 2.9938876E+002, 3.0911316E+002, 3.0367532E+002, 3.1018726E+002, 3.0192349E+002, 1.9534499E+002, 2.7039090E+002
 7.8003548E+002, 3.4956339E+002, 2.4556680E+002, 3.0043353E+002, 3.0987329E+002, 3.0457132E+002, 3.1091736E+002, 3.0288736E+002, 1.9617130E+002, 2.7156985E+002
 7.9001402E+002, 3.4539886E+002, 2.4678926E+002, 3.0130807E+002, 3.1045554E+002, 3.0529160E+002, 3.1146906E+002, 3.0367783E+002, 1.9687933E+002, 2.7258841E+002
 8.0002849E+002, 3.4123346E+002, 2.4786975E+002, 3.0200165E+002, 3.1084656E+002, 3.0582321E+002, 3.1182886E+002, 3.0428311E+002, 1.9746123E+002, 2.7343112E+002
 8.1002073E+002, 3.3706540E+002, 2.4880751E+002, 3.0250919E+002, 3.1104181E+002, 3.0616177E+002, 3.1199228E+002, 3.0469852E+002, 1.9792583E+002, 2.7410364E+002
 8.2002467E+002, 3.3289951E+002, 2.4961960E+002, 3.0285040E+002, 3.1106845E+002, 3.0633310E+002, 3.1198697E+002, 3.0494678E+002, 1.9829393E+002, 2.7464117E+002
 8.3000443E+002, 3.2873636E+002, 2.5032184E+002, 3.0304813E+002, 3.1095306E+002, 3.0636295E+002, 3.1183969E+002, 3.0505231E+002, 1.9857533E+002, 2.7506439E+002
 8.4003473E+002, 3.2456729E+002, 2.5090976E+002, 3.0309338E+002, 3.1067941E+002, 3.0623502E+002, 3.1153397E+002, 3.0500269E+002, 1.9876518E+002, 2.7535046E+002
 8.5000516E+002, 3.2040042E+002, 2.5137823E+002, 3.0297885E+002, 3.1024017E+002, 3.0594177E+002, 3.1106253E+002, 3.0479037E+002, 1.9886339E+002, 2.7549622E+002
 8.6003556E+002, 3.1623346E+002, 2.5174681E+002, 3.0273077E+002, 3.0967108E+002, 3.0551880E+002, 3.1046140E+002, 3.0444617E+002, 1.9888763E+002, 2.7554492E+002
 8.7002163E+002, 3.1206839E+002, 2.5203365E+002, 3.0237686E+002, 3.0900183E+002, 3.0499472E+002, 3.0976044E+002, 3.0399850E+002, 1.9884579E+002, 2.7551260E+002
 8.8000815E+002, 3.3181131E+002, 2.5224245E+002, 3.0191617E+002, 3.0823038E+002, 3.0436682E+002, 3.0895773E+002, 3.0344553E+002, 1.9875508E+002, 2.7540744E+002
 8.9002282E+002, 3.7514270E+002, 2.5264572E+002, 3.0163220E+002, 3.0772238E+002, 3.0398947E+002, 3.0842334E+002, 3.0310596E+002, 1.9897209E+002, 2.7574344E+002
 9.0000446E+002, 4.1846286E+002, 2.5389836E+002, 3.0222998E+002, 3.0831912E+002, 3.0467133E+002, 3.0900793E+002, 3.0373904E+002, 2.0021793E+002, 2.7749680E+002
 9.1001051E+002, 4.6176349E+002, 2.5656708E+002, 3.0433203E+002, 3.1069232E+002, 3.0705484E+002, 3.1138907E+002, 3.0598080E+002, 2.0299898E+002, 2.8128290E+002
 9.2001227E+002, 5.0511182E+002, 2.6105246E+002, 3.0837592E+002, 3.1528369E+002, 3.1156665E+002, 3.1601068E+002, 3.1026501E+002, 2.0764716E+002, 2.8746100E+002
 9.3002232E+002, 5.4846698E+002, 2.6766034E+002, 3.1469604E+002, 3.2242212E+002, 3.1853326E+002, 3.2320157E+002, 3.1692230E+002, 2.1442584E+002, 2.9629065E+002
 9.4000662E+002, 5.9178467E+002, 2.7662000E+002, 3.2352942E+002, 3.3232806E+002, 3.2818341E+002, 3.3318036E+002, 3.2618488E+002, 2.2356125E+002, 3.0794736E+002
 9.5001735E+002, 6.3510455E+002, 2.8814020E+002, 3.3509048E+002, 3.4520718E+002, 3.4074057E+002, 3.4614908E+002, 3.3827051E+002, 2.3527747E+002, 3.2261420E+002
 9.6000282E+002, 6.7842523E+002, 3.0239078E+002, 3.4954880E+002, 3.6121509E+002, 3.5638586E+002, 3.6225861E+002, 3.5335330E+002, 2.4978055E+002, 3.4043146E+002
 9.7000737E+002, 6.7956860E+002, 3.1936786E+002, 3.6688092E+002, 3.8025949E+002, 3.7506552E+002, 3.8140826E+002, 3.7139301E+002, 2.6707040E+002, 3.6120432E+002
 9.8001815E+002, 6.3882751E+002, 3.3745908E+002, 3.8546860E+002, 4.0023349E+002, 3.9473929E+002, 4.0146521E+002, 3.9056177E+002, 2.8491867E+002, 3.8183163E+002
 9.9001305E+002, 5.9809998E+002, 3.5329120E+002, 4.0187946E+002, 4.1714929E+002, 4.1149750E+002, 4.1841458E+002, 4.0717728E+002, 2.9950198E+002, 3.9762662E+002
 1.0000238E+003, 5.5737244E+002, 3.6528815E+002, 4.1448526E+002, 4.2950922E+002, 4.2385043E+002, 4.3076376E+002, 4.1966913E+002, 3.0968088E+002, 4.0772311E+002
 1.0100018E+003, 5.1667926E+002, 3.7333322E+002, 4.2314462E+002, 4.3745432E+002, 4.3190939E+002, 4.3866736E+002, 4.2802310E+002, 3.1579153E+002, 4.1291776E+002
 1.0200161E+003, 4.7597678E+002, 3.7785910E+002, 4.2825854E+002, 4.4159525E+002, 4.3625919E+002, 4.4274594E+002, 4.3273621E+002, 3.1854071E+002, 4.1425095E+002
 1.0300085E+003, 4.3524667E+002, 3.7949609E+002, 4.3042432E+002, 4.4267447E+002, 4.3761667E+002, 4.4374976E+002, 4.3447040E+002, 3.1868732E+002, 4.1273743E+002
 1.0400129E+003, 4.1054706E+002, 3.7884723E+002, 4.3020813E+002, 4.4133688E+002, 4.3660666E+002, 4.4232858E+002, 4.3382581E+002, 3.1687247E+002, 4.0916452E+002
 1.0500049E+003, 4.0168262E+002, 3.7664117E+002, 4.2830222E+002, 4.3837286E+002, 4.3399719E+002, 4.3927905E+002, 4.3153510E+002, 3.1389410E+002, 4.0451248E+002
 1.0600119E+003, 3.9281894E+002, 3.7374829E+002, 4.2557822E+002, 4.3475345E+002, 4.3073007E+002, 4.3557950E+002, 4.2850854E+002, 3.1062054E+002, 3.9984314E+002
 1.0700045E+003, 3.8395541E+002, 3.7065567E+002, 4.2251773E+002, 4.3093167E+002, 4.2724023E+002, 4.3168466E+002, 4.2520728E+002, 3.0740936E+002, 3.9547482E+002
 1.0800076E+003, 3.7509323E+002, 3.6756778E+002, 4.1932098E+002, 4.2706235E+002, 4.2367892E+002, 4.2774854E+002, 4.2180704E+002, 3.0434750E+002, 3.9144028E+002
 1.0900288E+003, 3.6621878E+002, 3.6454446E+002, 4.1604416E+002, 4.2316168E+002, 4.2006415E+002, 4.2378580E+002, 4.1834390E+002, 3.0141873E+002, 3.8766516E+002
 1.1000238E+003, 3.5734738E+002, 3.6160492E+002, 4.1270663E+002, 4.1922681E+002, 4.1639505E+002, 4.1979272E+002, 4.1482608E+002, 2.9860214E+002, 3.8408905E+002
 1.1100342E+003, 3.4848111E+002, 3.5875232E+002, 4.0932214E+002, 4.1526492E+002, 4.1268295E+002, 4.1577560E+002, 4.1126508E+002, 2.9587448E+002, 3.8068005E+002
 1.1200066E+003, 3.3962494E+002, 3.5597183E+002, 4.0588254E+002, 4.1125809E+002, 4.0891220E+002, 4.1171594E+002, 4.0764822E+002, 2.9320856E+002, 3.7738065E+002
 1.1300047E+003, 3.3077408E+002, 3.5324081E+002, 4.0237009E+002, 4.0718231E+002, 4.0506094E+002, 4.0758939E+002, 4.0395523E+002, 2.9058035E+002, 3.7414047E+002
 1.1400048E+003, 3.2191113E+002, 3.5053613E+002, 3.9876828E+002, 4.0302081E+002, 4.0111478E+002, 4.0337869E+002, 4.0017010E+002, 2.8796997E+002, 3.7092941E+002
 1.1500076E+003, 3.1304590E+002, 3.4786517E+002, 3.9509995E+002, 3.9880389E+002, 3.9710562E+002, 3.9911420E+002, 3.9632007E+002, 2.8538394E+002, 3.6776169E+002
 1.1600204E+003, 3.0417474E+002, 3.4519913E+002, 3.9134183E+002, 3.9449866E+002, 3.9300067E+002, 3.9476254E+002, 3.9237750E+002, 2.8279297E+002, 3.6457373E+002
 1.1700341E+003, 2.9529926E+002, 3.4252908E+002, 3.8749005E+002, 3.9010526E+002, 3.8880099E+002, 3.9032404E+002, 3.8834045E+002, 2.8020062E+002, 3.6136731E+002
 1.1800299E+003, 2.8643109E+002, 3.3986475E+002, 3.8356653E+002, 3.8565070E+002, 3.8453415E+002, 3.8582568E+002, 3.8423373E+002, 2.7761832E+002, 3.5815588E+002
 1.1900025E+003, 2.7758090E+002, 3.3719919E+002, 3.7957581E+002, 3.8113885E+002, 3.8020438E+002, 3.8127121E+002, 3.8006180E+002, 2.7503833E+002, 3.5492648E+002
 1.2000091E+003, 2.6872626E+002, 3.3452454E+002, 3.7551703E+002, 3.7657043E+002, 3.7581366E+002, 3.7666125E+002, 3.7582516E+002, 2.7245459E+002, 3.5167685E+002
 1.2100171E+003, 2.5985593E+002, 3.3183356E+002, 3.7138708E+002, 3.7194028E+002, 3.7135693E+002, 3.7199048E+002, 3.7151987E+002, 2.6986502E+002, 3.4839340E+002
 1.2200131E+003, 2.5098952E+002, 3.2912454E+002, 3.6719229E+002, 3.6725452E+002, 3.6684009E+002, 3.6726511E+002, 3.6715207E+002, 2.6727133E+002, 3.4507300E+002
 1.2300314E+003, 2.4211977E+002, 3.2640961E+002, 3.6295334E+002, 3.6254080E+002, 3.6229172E+002, 3.6251285E+002, 3.6274625E+002, 2.6468887E+002, 3.4174738E+002
