s,C,C
Time,"Air Temp","NRC_1"
 0.0000000E+000, 3.0000000E+001, 3.0000000E+001
 1.0200000E+001, 4.0514824E+001, 3.0001141E+001
 2.0105786E+001, 6.0345829E+001, 3.0029005E+001
 3.0083351E+001, 8.0194176E+001, 3.0151421E+001
 4.0035414E+001, 1.0001485E+002, 3.0431808E+001
 5.0000566E+001, 1.1987297E+002, 3.0911640E+001
 6.0036035E+001, 1.3983275E+002, 3.1626253E+001
 7.0041455E+001, 1.5980875E+002, 3.2600632E+001
 8.0011319E+001, 1.7974014E+002, 3.3866062E+001
 9.0003770E+001, 1.9963609E+002, 3.5453747E+001
 1.0000434E+002, 2.1958047E+002, 3.7389446E+001
 1.1002129E+002, 2.3208461E+002, 3.9702534E+001
 1.2004002E+002, 2.3722350E+002, 4.2328983E+001
 1.3001236E+002, 2.4235030E+002, 4.5106670E+001
 1.4003109E+002, 2.4747685E+002, 4.7952087E+001
 1.5000344E+002, 2.5260648E+002, 5.0841782E+001
 1.6001742E+002, 2.5773260E+002, 5.3770576E+001
 1.7002770E+002, 2.6286694E+002, 5.6744022E+001
 1.8000085E+002, 2.6799454E+002, 5.9763756E+001
 1.9003043E+002, 2.7312405E+002, 6.2849327E+001
 2.0002494E+002, 2.7826181E+002, 6.5993233E+001
 2.1001462E+002, 2.8683768E+002, 6.9193504E+001
 2.2001364E+002, 2.9879825E+002, 7.2537514E+001
 2.3000827E+002, 3.1076419E+002, 7.6149559E+001
 2.4001585E+002, 3.2273633E+002, 8.0095444E+001
 2.5004159E+002, 3.3472195E+002, 8.4398643E+001
 2.6001743E+002, 3.4669482E+002, 8.9062866E+001
 2.7000169E+002, 3.5864227E+002, 9.4107605E+001
 2.8001178E+002, 3.7061032E+002, 9.9559189E+001
 2.9001098E+002, 3.8258389E+002, 1.0542031E+002
 3.0002582E+002, 3.9456131E+002, 1.1168826E+002
 3.1000807E+002, 4.0250934E+002, 1.1836713E+002
 3.2000238E+002, 4.0649542E+002, 1.2534243E+002
 3.3000715E+002, 4.1048413E+002, 1.3241304E+002
 3.4003110E+002, 4.1448087E+002, 1.3948363E+002
 3.5003273E+002, 4.1847406E+002, 1.4651270E+002
 3.6002569E+002, 4.2246445E+002, 1.5348471E+002
 3.7002839E+002, 4.2645374E+002, 1.6042761E+002
 3.8001041E+002, 4.3044150E+002, 1.6735057E+002
 3.9001738E+002, 4.3442664E+002, 1.7425513E+002
 4.0001105E+002, 4.3841794E+002, 1.8112756E+002
 4.1001479E+002, 4.4154678E+002, 1.8798686E+002
 4.2002986E+002, 4.4382877E+002, 1.9482623E+002
 4.3002805E+002, 4.4611053E+002, 2.0155962E+002
 4.4000087E+002, 4.4838724E+002, 2.0817644E+002
 4.5003599E+002, 4.5066885E+002, 2.1470135E+002
 4.6001410E+002, 4.5294946E+002, 2.2110480E+002
 4.7001725E+002, 4.5522794E+002, 2.2739375E+002
 4.8000317E+002, 4.5750650E+002, 2.3359653E+002
 4.9003342E+002, 4.5978851E+002, 2.3973073E+002
 5.0000330E+002, 4.6206796E+002, 2.4577141E+002
 5.1001315E+002, 4.6491916E+002, 2.5171284E+002
 5.2001778E+002, 4.6834067E+002, 2.5759781E+002
 5.3003480E+002, 4.7176642E+002, 2.6347147E+002
 5.4002031E+002, 4.7518549E+002, 2.6934570E+002
 5.5001464E+002, 4.7860165E+002, 2.7520462E+002
 5.6002035E+002, 4.8202084E+002, 2.8107239E+002
 5.7000082E+002, 4.8544012E+002, 2.8693457E+002
 5.8000878E+002, 4.8885736E+002, 2.9275797E+002
 5.9001334E+002, 4.9227985E+002, 2.9856036E+002
 6.0000994E+002, 4.9569873E+002, 3.0435788E+002
 6.1002706E+002, 4.9912308E+002, 3.1017554E+002
 6.2000620E+002, 5.0254221E+002, 3.1597470E+002
 6.3002959E+002, 5.0596237E+002, 3.2174063E+002
 6.4000054E+002, 5.0938077E+002, 3.2747531E+002
 6.5002399E+002, 5.1279956E+002, 3.3316968E+002
 6.6001142E+002, 5.1622235E+002, 3.3884775E+002
 6.7002522E+002, 5.1964148E+002, 3.4445892E+002
 6.8002385E+002, 5.2306421E+002, 3.5004166E+002
 6.9001236E+002, 5.2648126E+002, 3.5561026E+002
 7.0000007E+002, 5.2989758E+002, 3.6117596E+002
 7.1001013E+002, 5.3417511E+002, 3.6673410E+002
 7.2000793E+002, 5.3930695E+002, 3.7228088E+002
 7.3001838E+002, 5.4443921E+002, 3.7787173E+002
 7.4001122E+002, 5.4957196E+002, 3.8354950E+002
 7.5002393E+002, 5.5470453E+002, 3.8933774E+002
 7.6000769E+002, 5.5983215E+002, 3.9519461E+002
 7.7002872E+002, 5.6496307E+002, 4.0108984E+002
 7.8001362E+002, 5.7009418E+002, 4.0703143E+002
 7.9003135E+002, 5.7522491E+002, 4.1301233E+002
 8.0003270E+002, 5.8035950E+002, 4.1901819E+002
 8.1003333E+002, 5.8318793E+002, 4.2506284E+002
 8.2000643E+002, 5.8375708E+002, 4.3098541E+002
 8.3001266E+002, 5.8432623E+002, 4.3661267E+002
 8.4001460E+002, 5.8489679E+002, 4.4190109E+002
 8.5002516E+002, 5.8546698E+002, 4.4690918E+002
 8.6003145E+002, 5.8603766E+002, 4.5167566E+002
 8.7000459E+002, 5.8660712E+002, 4.5618011E+002
 8.8000101E+002, 5.8717615E+002, 4.6044235E+002
 8.9003301E+002, 5.8774683E+002, 4.6453699E+002
 9.0002906E+002, 5.8831750E+002, 4.6847821E+002
 9.1002507E+002, 5.8629974E+002, 4.7222406E+002
 9.2002130E+002, 5.8174329E+002, 4.7568484E+002
 9.3000986E+002, 5.7718652E+002, 4.7864670E+002
 9.4000333E+002, 5.7263043E+002, 4.8110043E+002
 9.5002904E+002, 5.6806567E+002, 4.8312927E+002
 9.6000429E+002, 5.6350488E+002, 4.8477682E+002
 9.7000088E+002, 5.5895154E+002, 4.8604724E+002
 9.8003350E+002, 5.5438495E+002, 4.8699265E+002
 9.9002666E+002, 5.4981750E+002, 4.8761755E+002
 1.0000104E+003, 5.4526318E+002, 4.8801224E+002
 1.0100048E+003, 5.3726733E+002, 4.8821561E+002
 1.0200018E+003, 5.2588037E+002, 4.8808820E+002
 1.0300018E+003, 5.1448108E+002, 4.8742294E+002
 1.0400168E+003, 5.0306668E+002, 4.8618390E+002
 1.0500189E+003, 4.9166177E+002, 4.8435739E+002
 1.0600065E+003, 4.8026266E+002, 4.8207437E+002
 1.0700037E+003, 4.6887155E+002, 4.7941385E+002
 1.0800300E+003, 4.5746371E+002, 4.7643686E+002
 1.0900077E+003, 4.4606235E+002, 4.7318677E+002
 1.1000287E+003, 4.3465482E+002, 4.6968997E+002
 1.1100227E+003, 4.2181512E+002, 4.6599780E+002
 1.1200219E+003, 4.0756516E+002, 4.6213739E+002
 1.1300180E+003, 3.9332321E+002, 4.5800244E+002
 1.1400210E+003, 3.7906720E+002, 4.5359732E+002
 1.1500322E+003, 3.6481003E+002, 4.4896011E+002
 1.1600194E+003, 3.5056561E+002, 4.4414551E+002
 1.1700338E+003, 3.3630807E+002, 4.3919327E+002
 1.1800353E+003, 3.2204373E+002, 4.3411786E+002
 1.1900160E+003, 3.0779926E+002, 4.2895312E+002
 1.2000221E+003, 2.9356653E+002, 4.2371039E+002
 1.2100110E+003, 2.8362808E+002, 4.1842319E+002
 1.2200320E+003, 2.7792450E+002, 4.1318274E+002
 1.2300438E+003, 2.7221332E+002, 4.0809128E+002
 1.2400354E+003, 2.6651410E+002, 4.0317462E+002
 1.2500201E+003, 2.6082291E+002, 3.9842242E+002
 1.2600070E+003, 2.5512852E+002, 3.9381125E+002
 1.2700229E+003, 2.4943633E+002, 3.8932916E+002
 1.2800027E+003, 2.4372365E+002, 3.8495102E+002
 1.2900226E+003, 2.3803314E+002, 3.8067282E+002
 1.3000230E+003, 2.3232410E+002, 3.7648190E+002
 1.3100259E+003, 2.2777611E+002, 3.7235321E+002
 1.3200187E+003, 2.2435474E+002, 3.6829413E+002
 1.3300471E+003, 2.2092870E+002, 3.6432297E+002
 1.3400456E+003, 2.1750555E+002, 3.6045084E+002
 1.3500448E+003, 2.1408632E+002, 3.5668436E+002
 1.3600329E+003, 2.1066811E+002, 3.5299313E+002
 1.3700152E+003, 2.0725316E+002, 3.4938547E+002
 1.3800478E+003, 2.0383290E+002, 3.4582474E+002
 1.3900302E+003, 2.0040559E+002, 3.4232184E+002
 1.4000511E+003, 1.9698886E+002, 3.3888348E+002
 1.4100350E+003, 1.9414432E+002, 3.3549249E+002
 1.4200190E+003, 1.9186812E+002, 3.3216110E+002
 1.4300030E+003, 1.8959192E+002, 3.2889355E+002
 1.4400390E+003, 1.8730937E+002, 3.2568115E+002
 1.4500230E+003, 1.8502718E+002, 3.2251562E+002
 1.4600070E+003, 1.8275098E+002, 3.1941125E+002
 1.4700430E+003, 1.8046843E+002, 3.1636014E+002
 1.4800270E+003, 1.7818622E+002, 3.1335837E+002
 1.4900086E+003, 1.7590962E+002, 3.1041074E+002
 1.5000100E+003, 1.7363280E+002, 3.0750089E+002
 1.5100060E+003, 1.7135149E+002, 3.0463632E+002
 1.5200490E+003, 1.6906790E+002, 3.0180856E+002
 1.5300300E+003, 1.6678464E+002, 2.9902240E+002
 1.5400110E+003, 1.6451097E+002, 2.9628546E+002
 1.5500160E+003, 1.6223039E+002, 2.9357349E+002
 1.5600325E+003, 1.5994896E+002, 2.9089816E+002
 1.5700500E+003, 1.5766359E+002, 2.8824594E+002
 1.5800455E+003, 1.5538310E+002, 2.8562729E+002
 1.5900434E+003, 1.5310382E+002, 2.8304358E+002
 1.6000413E+003, 1.5082431E+002, 2.8048746E+002
 1.6100134E+003, 1.4897993E+002, 2.7797604E+002
 1.6200225E+003, 1.4755557E+002, 2.7550061E+002
 1.6300316E+003, 1.4612961E+002, 2.7305191E+002
 1.6400534E+003, 1.4470287E+002, 2.7064789E+002
 1.6500089E+003, 1.4328111E+002, 2.6829352E+002
 1.6600464E+003, 1.4185484E+002, 2.6596417E+002
 1.6700340E+003, 1.4042732E+002, 2.6366058E+002
 1.6800320E+003, 1.3900360E+002, 2.6139465E+002
 1.6900169E+003, 1.3758011E+002, 2.5916766E+002
 1.7000479E+003, 1.3615370E+002, 2.5696100E+002
 1.7100566E+003, 1.3472592E+002, 2.5478326E+002
 1.7200244E+003, 1.3330280E+002, 2.5264412E+002
 1.7300109E+003, 1.3188037E+002, 2.5054395E+002
 1.7400569E+003, 1.3045357E+002, 2.4846262E+002
 1.7500492E+003, 1.2902550E+002, 2.4640434E+002
 1.7600652E+003, 1.2760080E+002, 2.4437546E+002
 1.7700350E+003, 1.2617523E+002, 2.4238225E+002
 1.7800538E+003, 1.2475170E+002, 2.4040552E+002
 1.7900581E+003, 1.2332529E+002, 2.3844180E+002
 1.8000259E+003, 1.2190196E+002, 2.3650174E+002
 1.8100490E+003, 1.2076665E+002, 2.3458505E+002
 1.8200087E+003, 1.1991216E+002, 2.3270097E+002
 1.8300318E+003, 1.1905817E+002, 2.3084593E+002
 1.8400550E+003, 1.1820100E+002, 2.2900282E+002
 1.8500147E+003, 1.1734695E+002, 2.2718970E+002
 1.8600378E+003, 1.1649252E+002, 2.2540395E+002
 1.8700609E+003, 1.1563557E+002, 2.2363611E+002
 1.8800206E+003, 1.1478129E+002, 2.2190814E+002
 1.8900438E+003, 1.1392709E+002, 2.2020212E+002
 1.9000162E+003, 1.1307188E+002, 2.1851617E+002
 1.9100140E+003, 1.1221848E+002, 2.1685657E+002
 1.9200563E+003, 1.1136173E+002, 2.1520590E+002
 1.9300673E+003, 1.1050436E+002, 2.1357344E+002
 1.9400092E+003, 1.0965132E+002, 2.1197310E+002
 1.9500201E+003, 1.0879837E+002, 2.1039043E+002
 1.9600492E+003, 1.0794139E+002, 2.0881885E+002
 1.9700280E+003, 1.0708668E+002, 2.0726938E+002
 1.9800232E+003, 1.0623241E+002, 2.0573915E+002
 1.9900184E+003, 1.0537785E+002, 2.0422581E+002
 2.0000135E+003, 1.0452331E+002, 2.0273053E+002
