s,C,C,C,C,C,C,C,C,C
Time,"Air Temp","IRSN_1","IRSN_2","TRAC_2","TRAC_3","TRAC_4","VTT_1","GRS_2","NRC_1"
 0.0000000E+000, 2.0000000E+001, 2.0000000E+001, 2.0000000E+001, 2.0000000E+001, 2.0000000E+001, 2.0000000E+001, 2.0000000E+001, 2.0000000E+001, 2.0000000E+001
 1.0025171E+001, 2.2293053E+001, 2.0000122E+001, 2.0000271E+001, 2.0000017E+001, 2.0000011E+001, 2.0000017E+001, 2.0000267E+001, 2.0000040E+001, 2.0000517E+001
 2.0050341E+001, 2.6849949E+001, 2.0004498E+001, 2.0007915E+001, 2.0001455E+001, 2.0001144E+001, 2.0001476E+001, 2.0007776E+001, 2.0002050E+001, 2.0011169E+001
 3.0011248E+001, 3.7264812E+001, 2.0024677E+001, 2.0040165E+001, 2.0011406E+001, 2.0009371E+001, 2.0011568E+001, 2.0039572E+001, 2.0012650E+001, 2.0050379E+001
 4.0036419E+001, 5.9531349E+001, 2.0083141E+001, 2.0133022E+001, 2.0044075E+001, 2.0036999E+001, 2.0044680E+001, 2.0131321E+001, 2.0043978E+001, 2.0161837E+001
 5.0001361E+001, 8.2134178E+001, 2.0241245E+001, 2.0379038E+001, 2.0138533E+001, 2.0117483E+001, 2.0140390E+001, 2.0374578E+001, 2.0130642E+001, 2.0445055E+001
 6.0006130E+001, 1.0470580E+002, 2.0567242E+001, 2.0872929E+001, 2.0358343E+001, 2.0307413E+001, 2.0363049E+001, 2.0863853E+001, 2.0316339E+001, 2.0986895E+001
 7.0042814E+001, 1.2736489E+002, 2.1117636E+001, 2.1686699E+001, 2.0773113E+001, 2.0670933E+001, 2.0783026E+001, 2.1671135E+001, 2.0640812E+001, 2.1841749E+001
 8.0002391E+001, 1.4997467E+002, 2.1922878E+001, 2.2855715E+001, 2.1434105E+001, 2.1256821E+001, 2.1452179E+001, 2.2831520E+001, 2.1129536E+001, 2.3035072E+001
 9.0031600E+001, 1.7257722E+002, 2.3019367E+001, 2.4425930E+001, 2.2389790E+001, 2.2110819E+001, 2.2419554E+001, 2.4390713E+001, 2.1809456E+001, 2.4606703E+001
 1.0003117E+002, 1.9522722E+002, 2.4443455E+001, 2.6443052E+001, 2.3689121E+001, 2.3278870E+001, 2.3734711E+001, 2.6393835E+001, 2.2707943E+001, 2.6594496E+001
 1.1002147E+002, 2.1585327E+002, 2.6228949E+001, 2.8949268E+001, 2.5374403E+001, 2.4800438E+001, 2.5440516E+001, 2.8882570E+001, 2.3851898E+001, 2.9034281E+001
 1.2000861E+002, 2.1851970E+002, 2.8387674E+001, 3.1947496E+001, 2.7486683E+001, 2.6714676E+001, 2.7578585E+001, 3.1860485E+001, 2.5260616E+001, 3.1901588E+001
 1.3000431E+002, 2.1688168E+002, 3.0756971E+001, 3.5164539E+001, 2.9991024E+001, 2.8999884E+001, 3.0113277E+001, 3.5059456E+001, 2.6854855E+001, 3.4839104E+001
 1.4000904E+002, 2.1524234E+002, 3.3121460E+001, 3.8328285E+001, 3.2715462E+001, 3.1509401E+001, 3.2870266E+001, 3.8212257E+001, 2.8489790E+001, 3.7631145E+001
 1.5000975E+002, 2.1360254E+002, 3.5390930E+001, 4.1342255E+001, 3.5524620E+001, 3.4118935E+001, 3.5712353E+001, 4.1222195E+001, 3.0089323E+001, 4.0218948E+001
 1.6001057E+002, 2.1196307E+002, 3.7553879E+001, 4.4219761E+001, 3.8341648E+001, 3.6752800E+001, 3.8561836E+001, 4.4103367E+001, 3.1627956E+001, 4.2657352E+001
 1.7001448E+002, 2.1087688E+002, 3.9619202E+001, 4.6976730E+001, 4.1145199E+001, 3.9388290E+001, 4.1396820E+001, 4.6871693E+001, 3.3102890E+001, 4.4957970E+001
 1.8003157E+002, 2.1836310E+002, 4.1583645E+001, 4.9611832E+001, 4.3911381E+001, 4.2001286E+001, 4.4193195E+001, 4.9523697E+001, 3.4511253E+001, 4.7134869E+001
 1.9001140E+002, 2.2876649E+002, 4.3533855E+001, 5.2271259E+001, 4.6651787E+001, 4.4594738E+001, 4.6962971E+001, 5.2202171E+001, 3.5893616E+001, 4.9374031E+001
 2.0000936E+002, 2.3915863E+002, 4.5590141E+001, 5.5110744E+001, 4.9454247E+001, 4.7241669E+001, 4.9795338E+001, 5.5059940E+001, 3.7330971E+001, 5.1815460E+001
 2.1002099E+002, 2.4956755E+002, 4.7836140E+001, 5.8230030E+001, 5.2409435E+001, 5.0025269E+001, 5.2781792E+001, 5.8197334E+001, 3.8881119E+001, 5.4536362E+001
 2.2001114E+002, 2.5997275E+002, 5.0266499E+001, 6.1607685E+001, 5.5559486E+001, 5.2985897E+001, 5.5965183E+001, 6.1590294E+001, 4.0557606E+001, 5.7482513E+001
 2.3000433E+002, 2.7036838E+002, 5.2917595E+001, 6.5297432E+001, 5.8930180E+001, 5.6147114E+001, 5.9371719E+001, 6.5294151E+001, 4.2381035E+001, 6.0735710E+001
 2.4000054E+002, 2.8076730E+002, 5.5815845E+001, 6.9317665E+001, 6.2567127E+001, 5.9554821E+001, 6.3046921E+001, 6.9328407E+001, 4.4369194E+001, 6.4285812E+001
 2.5001039E+002, 2.9117490E+002, 5.8940361E+001, 7.3629837E+001, 6.6476768E+001, 6.3219070E+001, 6.6997200E+001, 7.3653389E+001, 4.6518806E+001, 6.8092194E+001
 2.6001850E+002, 3.0158844E+002, 6.2298306E+001, 7.8253983E+001, 7.0662018E+001, 6.7142052E+001, 7.1225708E+001, 7.8288841E+001, 4.8835304E+001, 7.2181007E+001
 2.7001276E+002, 3.1199438E+002, 6.5912018E+001, 8.3215088E+001, 7.5139877E+001, 7.1340027E+001, 7.5749413E+001, 8.3261635E+001, 5.1326973E+001, 7.6584465E+001
 2.8000627E+002, 3.2239258E+002, 6.9792198E+001, 8.8521996E+001, 7.9928703E+001, 7.5832970E+001, 8.0586441E+001, 8.8580681E+001, 5.4005569E+001, 8.1301628E+001
 2.9001833E+002, 3.3279953E+002, 7.3939964E+001, 9.4170670E+001, 8.5046585E+001, 8.0638817E+001, 8.5755119E+001, 9.4241516E+001, 5.6879963E+001, 8.6318214E+001
 3.0000665E+002, 3.4320398E+002, 7.8347389E+001, 1.0015074E+002, 9.0487007E+001, 8.5752792E+001, 9.1248802E+001, 1.0023405E+002, 5.9945095E+001, 9.1633759E+001
 3.1001875E+002, 3.5360876E+002, 8.3038605E+001, 1.0649645E+002, 9.6264549E+001, 9.1188660E+001, 9.7082008E+001, 1.0659362E+002, 6.3212975E+001, 9.7288361E+001
 3.2001831E+002, 3.6401944E+002, 8.8017632E+001, 1.1320181E+002, 1.0239464E+002, 9.6963242E+001, 1.0327000E+002, 1.1331431E+002, 6.6692802E+001, 1.0326439E+002
 3.3001757E+002, 3.7442334E+002, 9.3281593E+001, 1.2026926E+002, 1.0887363E+002, 1.0307375E+002, 1.0980904E+002, 1.2039859E+002, 7.0384537E+001, 1.0956896E+002
 3.4001010E+002, 3.8482312E+002, 9.8836319E+001, 1.2768301E+002, 1.1570727E+002, 1.0952802E+002, 1.1670453E+002, 1.2783186E+002, 7.4297424E+001, 1.1619505E+002
 3.5001487E+002, 3.9029465E+002, 1.0468954E+002, 1.3544928E+002, 1.2289301E+002, 1.1632803E+002, 1.2395316E+002, 1.3562125E+002, 7.8437424E+001, 1.2315652E+002
 3.6002005E+002, 3.9088403E+002, 1.1075280E+002, 1.4342529E+002, 1.3041521E+002, 1.2346397E+002, 1.3153880E+002, 1.4362631E+002, 8.2766953E+001, 1.3021976E+002
 3.7000548E+002, 3.9147195E+002, 1.1675208E+002, 1.5121497E+002, 1.3809901E+002, 1.3078656E+002, 1.3928459E+002, 1.5145511E+002, 8.7119102E+001, 1.3700789E+002
 3.8002122E+002, 3.9206021E+002, 1.2260114E+002, 1.5875749E+002, 1.4577687E+002, 1.3814388E+002, 1.4702042E+002, 1.5904825E+002, 9.1406929E+001, 1.4354510E+002
 3.9000422E+002, 3.9264841E+002, 1.2829601E+002, 1.6608534E+002, 1.5338950E+002, 1.4547185E+002, 1.5468677E+002, 1.6643661E+002, 9.5606827E+001, 1.4985522E+002
 4.0001741E+002, 3.9323651E+002, 1.3381310E+002, 1.7315469E+002, 1.6088799E+002, 1.5272208E+002, 1.6223434E+002, 1.7357462E+002, 9.9701569E+001, 1.5592108E+002
 4.1002158E+002, 3.9382532E+002, 1.3917049E+002, 1.7999326E+002, 1.6824942E+002, 1.5986938E+002, 1.6964005E+002, 1.8048828E+002, 1.0369615E+002, 1.6178076E+002
 4.2000362E+002, 3.9441312E+002, 1.4436679E+002, 1.8660902E+002, 1.7543602E+002, 1.6687427E+002, 1.7686598E+002, 1.8718376E+002, 1.0758408E+002, 1.6745537E+002
 4.3002053E+002, 3.9500131E+002, 1.4942661E+002, 1.9304405E+002, 1.8247079E+002, 1.7375301E+002, 1.8393582E+002, 1.9370164E+002, 1.1137717E+002, 1.7296465E+002
 4.4001277E+002, 3.9558984E+002, 1.5434676E+002, 1.9928000E+002, 1.8934268E+002, 1.8049364E+002, 1.9083859E+002, 2.0002242E+002, 1.1507388E+002, 1.7830724E+002
 4.5000204E+002, 3.9617749E+002, 1.5912819E+002, 2.0530334E+002, 1.9602541E+002, 1.8707048E+002, 1.9754778E+002, 2.0613046E+002, 1.1867893E+002, 1.8347997E+002
 4.6000094E+002, 3.9676541E+002, 1.6378206E+002, 2.1114769E+002, 2.0252074E+002, 1.9348344E+002, 2.0406534E+002, 2.1205882E+002, 1.2219708E+002, 1.8852116E+002
 4.7001520E+002, 3.9735403E+002, 1.6834885E+002, 2.1685370E+002, 2.0886082E+002, 1.9975832E+002, 2.1042395E+002, 2.1784766E+002, 1.2564939E+002, 1.9345786E+002
 4.8000426E+002, 3.9794235E+002, 1.7280455E+002, 2.2239095E+002, 2.1501398E+002, 2.0586803E+002, 2.1659164E+002, 2.2346506E+002, 1.2902869E+002, 1.9828238E+002
 4.9000886E+002, 3.9853043E+002, 1.7717168E+002, 2.2779903E+002, 2.2101279E+002, 2.1183626E+002, 2.2260199E+002, 2.2895099E+002, 1.3233765E+002, 2.0299336E+002
 5.0000240E+002, 3.9911859E+002, 1.8140982E+002, 2.3296442E+002, 2.2682430E+002, 2.1763852E+002, 2.2842145E+002, 2.3418927E+002, 1.3557155E+002, 2.0751816E+002
 5.1000589E+002, 3.9970654E+002, 1.8554910E+002, 2.3798303E+002, 2.3242833E+002, 2.2325255E+002, 2.3402980E+002, 2.3927660E+002, 1.3873723E+002, 2.1196526E+002
 5.2000621E+002, 3.9916373E+002, 1.8961475E+002, 2.4288525E+002, 2.3787856E+002, 2.2872292E+002, 2.3948164E+002, 2.4424478E+002, 1.4184286E+002, 2.1631563E+002
 5.3001182E+002, 3.9749673E+002, 1.9357529E+002, 2.4761594E+002, 2.4315352E+002, 2.3403307E+002, 2.4475536E+002, 2.4903778E+002, 1.4487759E+002, 2.2053932E+002
 5.4001069E+002, 3.9582968E+002, 1.9740811E+002, 2.5215433E+002, 2.4825240E+002, 2.3918115E+002, 2.4985022E+002, 2.5363698E+002, 1.4782065E+002, 2.2457944E+002
 5.5000007E+002, 3.9416403E+002, 2.0103485E+002, 2.5635114E+002, 2.5311374E+002, 2.4411331E+002, 2.5470457E+002, 2.5788834E+002, 1.5063531E+002, 2.2831006E+002
 5.6001832E+002, 3.9249673E+002, 2.0447125E+002, 2.6027206E+002, 2.5769574E+002, 2.4878862E+002, 2.5927606E+002, 2.6186066E+002, 1.5331914E+002, 2.3184482E+002
 5.7000281E+002, 3.9082983E+002, 2.0778964E+002, 2.6406485E+002, 2.6204916E+002, 2.5324539E+002, 2.6361630E+002, 2.6570465E+002, 1.5589384E+002, 2.3529399E+002
 5.8001293E+002, 3.8916354E+002, 2.1096936E+002, 2.6764359E+002, 2.6620538E+002, 2.5751495E+002, 2.6775699E+002, 2.6933105E+002, 1.5836105E+002, 2.3854370E+002
 5.9000891E+002, 3.8749643E+002, 2.1396046E+002, 2.7091019E+002, 2.7010669E+002, 2.6154697E+002, 2.7164041E+002, 2.7263470E+002, 1.6070726E+002, 2.4153987E+002
 6.0002113E+002, 3.8582904E+002, 2.1683376E+002, 2.7403897E+002, 2.7376309E+002, 2.6534149E+002, 2.7527707E+002, 2.7579825E+002, 1.6295105E+002, 2.4446794E+002
 6.1001487E+002, 3.8416193E+002, 2.1959941E+002, 2.7700684E+002, 2.7723242E+002, 2.6895340E+002, 2.7872501E+002, 2.7879822E+002, 1.6510585E+002, 2.4725363E+002
 6.2000434E+002, 3.8249664E+002, 2.2221481E+002, 2.7972577E+002, 2.8047906E+002, 2.7235333E+002, 2.8194852E+002, 2.8154129E+002, 1.6715845E+002, 2.4983551E+002
 6.3000270E+002, 3.8083090E+002, 2.2469882E+002, 2.8224829E+002, 2.8349570E+002, 2.7553073E+002, 2.8494052E+002, 2.8408072E+002, 1.6911514E+002, 2.5227400E+002
 6.4001246E+002, 3.7916357E+002, 2.2708255E+002, 2.8463712E+002, 2.8631277E+002, 2.7851068E+002, 2.8773193E+002, 2.8648300E+002, 1.7098741E+002, 2.5462366E+002
 6.5001938E+002, 3.7749554E+002, 2.2937901E+002, 2.8690240E+002, 2.8895715E+002, 2.8131967E+002, 2.9034964E+002, 2.8875888E+002, 1.7278423E+002, 2.5688480E+002
 6.6000584E+002, 3.7582947E+002, 2.3157016E+002, 2.8899680E+002, 2.9142920E+002, 2.8395840E+002, 2.9279428E+002, 2.9085760E+002, 1.7450284E+002, 2.5900156E+002
 6.7001195E+002, 3.7416339E+002, 2.3368420E+002, 2.9099573E+002, 2.9373438E+002, 2.8643219E+002, 2.9507117E+002, 2.9286084E+002, 1.7615205E+002, 2.6106772E+002
 6.8001726E+002, 3.7249576E+002, 2.3569000E+002, 2.9279282E+002, 2.9588168E+002, 2.8875156E+002, 2.9718964E+002, 2.9465164E+002, 1.7773123E+002, 2.6294296E+002
 6.9000651E+002, 3.7082959E+002, 2.3758728E+002, 2.9444507E+002, 2.9783774E+002, 2.9088174E+002, 2.9911652E+002, 2.9629407E+002, 1.7922906E+002, 2.6472699E+002
 7.0000541E+002, 3.6916388E+002, 2.3941388E+002, 2.9600504E+002, 2.9964807E+002, 2.9286368E+002, 3.0089740E+002, 2.9784302E+002, 1.8066312E+002, 2.6644406E+002
 7.1000406E+002, 3.6749731E+002, 2.4116379E+002, 2.9744260E+002, 3.0132376E+002, 2.9471069E+002, 3.0254333E+002, 2.9926474E+002, 1.8203789E+002, 2.6805945E+002
 7.2001838E+002, 3.6582959E+002, 2.4284218E+002, 2.9877310E+002, 3.0286011E+002, 2.9641736E+002, 3.0404987E+002, 3.0057526E+002, 1.8335670E+002, 2.6960269E+002
 7.3001759E+002, 3.6416190E+002, 2.4445000E+002, 2.9999872E+002, 3.0427200E+002, 2.9799753E+002, 3.0543204E+002, 3.0177887E+002, 1.8462074E+002, 2.7105597E+002
 7.4002073E+002, 3.6249490E+002, 2.4594824E+002, 3.0102756E+002, 3.0553845E+002, 2.9943481E+002, 3.0666855E+002, 3.0277841E+002, 1.8581874E+002, 2.7232800E+002
 7.5001189E+002, 3.6082846E+002, 2.4735721E+002, 3.0193762E+002, 3.0663693E+002, 3.0070428E+002, 3.0773724E+002, 3.0365433E+002, 1.8695262E+002, 2.7353223E+002
 7.6001265E+002, 3.5790680E+002, 2.4871519E+002, 3.0278857E+002, 3.0761996E+002, 3.0185208E+002, 3.0869095E+002, 3.0447034E+002, 1.8803885E+002, 2.7469174E+002
 7.7001620E+002, 3.5373932E+002, 2.4999290E+002, 3.0352817E+002, 3.0849753E+002, 3.0289264E+002, 3.0953918E+002, 3.0517633E+002, 1.8906668E+002, 2.7573892E+002
 7.8002042E+002, 3.4957104E+002, 2.5115739E+002, 3.0411987E+002, 3.0924722E+002, 3.0380893E+002, 3.1025906E+002, 3.0573834E+002, 1.9001309E+002, 2.7664697E+002
 7.9001350E+002, 3.4540475E+002, 2.5216203E+002, 3.0446936E+002, 3.0984338E+002, 3.0457941E+002, 3.1082455E+002, 3.0605569E+002, 1.9085487E+002, 2.7729483E+002
 8.0002112E+002, 3.4123795E+002, 2.5298335E+002, 3.0457306E+002, 3.1021640E+002, 3.0513589E+002, 3.1116638E+002, 3.0612161E+002, 1.9157253E+002, 2.7775867E+002
 8.1000622E+002, 3.3707281E+002, 2.5372676E+002, 3.0463211E+002, 3.1043985E+002, 3.0553937E+002, 3.1135831E+002, 3.0615073E+002, 1.9220514E+002, 2.7819440E+002
 8.2000433E+002, 3.3290976E+002, 2.5434935E+002, 3.0451740E+002, 3.1053287E+002, 3.0581464E+002, 3.1141931E+002, 3.0600293E+002, 1.9274942E+002, 2.7844553E+002
 8.3002254E+002, 3.2873938E+002, 2.5482825E+002, 3.0420471E+002, 3.1044708E+002, 3.0591461E+002, 3.1130142E+002, 3.0565164E+002, 1.9319438E+002, 2.7853409E+002
 8.4000126E+002, 3.2457355E+002, 2.5521568E+002, 3.0380542E+002, 3.1021082E+002, 3.0586188E+002, 3.1103305E+002, 3.0521594E+002, 1.9355734E+002, 2.7855978E+002
 8.5000706E+002, 3.2041006E+002, 2.5550911E+002, 3.0328296E+002, 3.0985367E+002, 3.0568692E+002, 3.1064368E+002, 3.0465668E+002, 1.9384584E+002, 2.7845419E+002
 8.6001910E+002, 3.1623965E+002, 2.5566852E+002, 3.0257108E+002, 3.0933350E+002, 3.0535245E+002, 3.1009116E+002, 3.0390329E+002, 1.9404553E+002, 2.7819330E+002
 8.7000919E+002, 3.1207681E+002, 2.5576190E+002, 3.0181763E+002, 3.0868750E+002, 3.0488852E+002, 3.0941281E+002, 3.0311261E+002, 1.9417801E+002, 2.7790656E+002
 8.8002430E+002, 3.3178989E+002, 2.5576064E+002, 3.0093069E+002, 3.0792667E+002, 3.0430978E+002, 3.0861963E+002, 3.0218317E+002, 1.9424162E+002, 2.7750400E+002
 8.9000500E+002, 3.7511102E+002, 2.5604565E+002, 3.0056299E+002, 3.0714581E+002, 3.0368427E+002, 3.0780853E+002, 3.0175732E+002, 1.9441774E+002, 2.7791040E+002
 9.0000723E+002, 4.1840341E+002, 2.5755273E+002, 3.0201181E+002, 3.0695602E+002, 3.0353510E+002, 3.0759766E+002, 3.0312531E+002, 1.9528241E+002, 2.8041168E+002
 9.1000047E+002, 4.6172415E+002, 2.6079901E+002, 3.0574887E+002, 3.0800983E+002, 3.0446881E+002, 3.0864587E+002, 3.0675024E+002, 1.9729352E+002, 2.8530106E+002
 9.2000454E+002, 5.0504929E+002, 2.6614957E+002, 3.1221646E+002, 3.1075195E+002, 3.0691309E+002, 3.1140149E+002, 3.1308344E+002, 2.0076448E+002, 2.9301135E+002
 9.3000914E+002, 5.4839758E+002, 2.7388971E+002, 3.2167691E+002, 3.1560977E+002, 3.1129001E+002, 3.1629333E+002, 3.2239734E+002, 2.0596495E+002, 3.0371408E+002
 9.4001474E+002, 5.9175250E+002, 2.8423260E+002, 3.3432953E+002, 3.2287991E+002, 3.1790936E+002, 3.2361743E+002, 3.3490424E+002, 2.1312151E+002, 3.1762366E+002
 9.5000610E+002, 6.3507684E+002, 2.9734344E+002, 3.5027139E+002, 3.3281537E+002, 3.2704382E+002, 3.3362469E+002, 3.5071289E+002, 2.2244128E+002, 3.3481454E+002
 9.6001340E+002, 6.7840417E+002, 3.1334271E+002, 3.6954285E+002, 3.4558835E+002, 3.3889545E+002, 3.4648404E+002, 3.6987570E+002, 2.3411746E+002, 3.5536194E+002
 9.7000554E+002, 6.7956958E+002, 3.3220688E+002, 3.9194073E+002, 3.6130716E+002, 3.5361227E+002, 3.6229898E+002, 3.9221286E+002, 2.4827824E+002, 3.7890005E+002
 9.8000973E+002, 6.3886902E+002, 3.5155533E+002, 4.1363022E+002, 3.7922894E+002, 3.7064642E+002, 3.8031247E+002, 4.1394339E+002, 2.6381168E+002, 4.0015756E+002
 9.9000769E+002, 5.9814648E+002, 3.6699249E+002, 4.2931284E+002, 3.9640195E+002, 3.8742014E+002, 3.9754514E+002, 4.2978198E+002, 2.7763632E+002, 4.1405811E+002
 1.0000024E+003, 5.5744489E+002, 3.7746298E+002, 4.3869476E+002, 4.1053333E+002, 4.0166812E+002, 4.1169678E+002, 4.3937888E+002, 2.8823581E+002, 4.2140271E+002
 1.0100123E+003, 5.1671967E+002, 3.8360956E+002, 4.4305057E+002, 4.2109448E+002, 4.1270581E+002, 4.2224609E+002, 4.4397455E+002, 2.9559290E+002, 4.2384055E+002
 1.0200036E+003, 4.7600153E+002, 3.8626920E+002, 4.4358701E+002, 4.2825735E+002, 4.2056247E+002, 4.2937366E+002, 4.4475500E+002, 3.0009250E+002, 4.2271237E+002
 1.0300001E+003, 4.3531210E+002, 3.8622903E+002, 4.4131537E+002, 4.3244220E+002, 4.2555646E+002, 4.3350583E+002, 4.4272751E+002, 3.0222113E+002, 4.1906216E+002
 1.0400003E+003, 4.1056180E+002, 3.8409711E+002, 4.3690793E+002, 4.3409122E+002, 4.2806921E+002, 4.3508908E+002, 4.3854861E+002, 3.0243182E+002, 4.1355435E+002
 1.0500190E+003, 4.0168689E+002, 3.8068192E+002, 4.3142975E+002, 4.3366684E+002, 4.2850003E+002, 4.3459079E+002, 4.3326566E+002, 3.0126630E+002, 4.0748267E+002
 1.0600103E+003, 3.9281851E+002, 3.7699515E+002, 4.2607343E+002, 4.3196542E+002, 4.2756104E+002, 4.3281424E+002, 4.2806223E+002, 2.9946936E+002, 4.0191400E+002
 1.0700067E+003, 3.8396045E+002, 3.7341400E+002, 4.2109183E+002, 4.2957455E+002, 4.2581726E+002, 4.3035187E+002, 4.2318613E+002, 2.9745505E+002, 3.9693326E+002
 1.0800204E+003, 3.7509195E+002, 3.6999277E+002, 4.1641302E+002, 4.2678183E+002, 4.2357385E+002, 4.2749164E+002, 4.1857581E+002, 2.9537222E+002, 3.9235880E+002
 1.0900118E+003, 3.6622586E+002, 3.6669159E+002, 4.1193649E+002, 4.2369275E+002, 4.2095972E+002, 4.2433844E+002, 4.1413666E+002, 2.9325153E+002, 3.8808435E+002
 1.1000034E+003, 3.5737003E+002, 3.6350427E+002, 4.0760709E+002, 4.2037463E+002, 4.1805881E+002, 4.2095901E+002, 4.0981543E+002, 2.9111621E+002, 3.8404282E+002
 1.1100023E+003, 3.4851013E+002, 3.6039053E+002, 4.0331821E+002, 4.1685199E+002, 4.1491064E+002, 4.1737750E+002, 4.0550320E+002, 2.8897296E+002, 3.8011206E+002
 1.1200158E+003, 3.3964105E+002, 3.5730740E+002, 3.9902151E+002, 4.1311365E+002, 4.1151202E+002, 4.1358304E+002, 4.0115680E+002, 2.8680502E+002, 3.7627090E+002
 1.1300138E+003, 3.3077188E+002, 3.5428088E+002, 3.9478018E+002, 4.0921671E+002, 4.0792407E+002, 4.0963190E+002, 3.9685330E+002, 2.8462393E+002, 3.7256134E+002
 1.1400119E+003, 3.2191016E+002, 3.5128766E+002, 3.9053110E+002, 4.0519406E+002, 4.0419006E+002, 4.0555649E+002, 3.9253043E+002, 2.8243146E+002, 3.6889944E+002
 1.1500169E+003, 3.1304480E+002, 3.4832755E+002, 3.8629471E+002, 4.0105200E+002, 4.0032071E+002, 4.0136285E+002, 3.8821384E+002, 2.8022931E+002, 3.6531772E+002
 1.1600007E+003, 3.0418576E+002, 3.4537311E+002, 3.8200348E+002, 3.9681143E+002, 3.9634134E+002, 3.9707184E+002, 3.8383145E+002, 2.7800992E+002, 3.6172025E+002
 1.1700098E+003, 2.9532532E+002, 3.4243036E+002, 3.7768045E+002, 3.9246127E+002, 3.9223962E+002, 3.9267276E+002, 3.7940695E+002, 2.7577750E+002, 3.5815244E+002
 1.1800135E+003, 2.8645551E+002, 3.3947549E+002, 3.7327380E+002, 3.8801175E+002, 3.8802686E+002, 3.8817587E+002, 3.7488943E+002, 2.7353082E+002, 3.5452765E+002
 1.1900240E+003, 2.7758551E+002, 3.3649796E+002, 3.6881793E+002, 3.8345514E+002, 3.8369910E+002, 3.8357315E+002, 3.7032373E+002, 2.7125900E+002, 3.5090674E+002
 1.2000078E+003, 2.6872400E+002, 3.3351785E+002, 3.6432755E+002, 3.7882703E+002, 3.7929047E+002, 3.7890009E+002, 3.6571603E+002, 2.6897037E+002, 3.4728143E+002
 1.2100209E+003, 2.5986130E+002, 3.3052661E+002, 3.5978171E+002, 3.7412744E+002, 3.7479904E+002, 3.7415714E+002, 3.6104831E+002, 2.6666876E+002, 3.4361899E+002
 1.2200182E+003, 2.5099319E+002, 3.2753284E+002, 3.5521945E+002, 3.6935220E+002, 3.7022275E+002, 3.6933997E+002, 3.5636359E+002, 2.6436044E+002, 3.3998914E+002
 1.2300226E+003, 2.4212883E+002, 3.2456097E+002, 3.5068692E+002, 3.6456073E+002, 3.6562119E+002, 3.6450751E+002, 3.5171616E+002, 2.6205627E+002, 3.3638196E+002
