s,C,C,C,C,C,C,C
Time,"Air Temp","VTT_1","IRSN_1","TRAC_2","TRAC_4","GRS_2","NRC_2"
 0.0000000E+000, 2.5000000E+001, 2.5000000E+001, 2.5000000E+001, 2.5000000E+001, 2.5000000E+001, 2.5000000E+001, 2.5000000E+001
 1.0200000E+001, 2.5421647E+001, 2.5000022E+001, 2.5000018E+001, 2.5000026E+001, 2.5000026E+001, 2.5000027E+001, 2.5000210E+001
 2.0200000E+001, 2.6216000E+001, 2.5000620E+001, 2.5000518E+001, 2.5000721E+001, 2.5000732E+001, 2.5000688E+001, 2.5003204E+001
 3.0200000E+001, 2.9182381E+001, 2.5003259E+001, 2.5002735E+001, 2.5003731E+001, 2.5003785E+001, 2.5003305E+001, 2.5011589E+001
 4.0140420E+001, 4.4170665E+001, 2.5012177E+001, 2.5010207E+001, 2.5013926E+001, 2.5014127E+001, 2.5012308E+001, 2.5047558E+001
 5.0110409E+001, 6.0990652E+001, 2.5055294E+001, 2.5046008E+001, 2.5063226E+001, 2.5064112E+001, 2.5055247E+001, 2.5207076E+001
 6.0061203E+001, 7.7709549E+001, 2.5179752E+001, 2.5148951E+001, 2.5203773E+001, 2.5206544E+001, 2.5169804E+001, 2.5550419E+001
 7.0022359E+001, 9.4449672E+001, 2.5427575E+001, 2.5353037E+001, 2.5480804E+001, 2.5487167E+001, 2.5383412E+001, 2.6117331E+001
 8.0055600E+001, 1.1126708E+002, 2.5838017E+001, 2.5689238E+001, 2.5935931E+001, 2.5948004E+001, 2.5718784E+001, 2.6923325E+001
 9.0015933E+001, 1.2807133E+002, 2.6432724E+001, 2.6174806E+001, 2.6591328E+001, 2.6611498E+001, 2.6186282E+001, 2.7972069E+001
 1.0004265E+002, 1.4488251E+002, 2.7237423E+001, 2.6829537E+001, 2.7474188E+001, 2.7505104E+001, 2.6801083E+001, 2.9286217E+001
 1.1000034E+002, 1.6169281E+002, 2.8275536E+001, 2.7671304E+001, 2.8609165E+001, 2.8653711E+001, 2.7576925E+001, 3.0884496E+001
 1.2005919E+002, 1.7309305E+002, 2.9560184E+001, 2.8710522E+001, 3.0009405E+001, 3.0070778E+001, 2.8519204E+001, 3.2728935E+001
 1.3004314E+002, 1.7922049E+002, 3.1086450E+001, 2.9940593E+001, 3.1667736E+001, 3.1748911E+001, 2.9613187E+001, 3.4761940E+001
 1.4000204E+002, 1.8530946E+002, 3.2792756E+001, 3.1308271E+001, 3.3513625E+001, 3.3616453E+001, 3.0797779E+001, 3.6828407E+001
 1.5003427E+002, 1.9141925E+002, 3.4638379E+001, 3.2777508E+001, 3.5502702E+001, 3.5628524E+001, 3.2041680E+001, 3.8907818E+001
 1.6005377E+002, 1.9754719E+002, 3.6602175E+001, 3.4328297E+001, 3.7613825E+001, 3.7763723E+001, 3.3335762E+001, 4.1051235E+001
 1.7005482E+002, 2.0366428E+002, 3.8669450E+001, 3.5946911E+001, 3.9832376E+001, 4.0007257E+001, 3.4672988E+001, 4.3240942E+001
 1.8005796E+002, 2.0977873E+002, 4.0834742E+001, 3.7628493E+001, 4.2153347E+001, 4.2354135E+001, 3.6053040E+001, 4.5492928E+001
 1.9002459E+002, 2.1587815E+002, 4.3099249E+001, 3.9374283E+001, 4.4578442E+001, 4.4805978E+001, 3.7481124E+001, 4.7827296E+001
 2.0005123E+002, 2.2198797E+002, 4.5472686E+001, 4.1192232E+001, 4.7118042E+001, 4.7373261E+001, 3.8964621E+001, 5.0243671E+001
 2.1003172E+002, 2.3104619E+002, 4.7955553E+001, 4.3083973E+001, 4.9772647E+001, 5.0056463E+001, 4.0506375E+001, 5.2771321E+001
 2.2004874E+002, 2.4296807E+002, 5.0575676E+001, 4.5073129E+001, 5.2574136E+001, 5.2887833E+001, 4.2135276E+001, 5.5514317E+001
 2.3002642E+002, 2.5489532E+002, 5.3397257E+001, 4.7213890E+001, 5.5594007E+001, 5.5939799E+001, 4.3908539E+001, 5.8583350E+001
 2.4003428E+002, 2.6680703E+002, 5.6470826E+001, 4.9549600E+001, 5.8886145E+001, 5.9266907E+001, 4.5860986E+001, 6.1994382E+001
 2.5005084E+002, 2.7874139E+002, 5.9838797E+001, 5.2117481E+001, 6.2493490E+001, 6.2912231E+001, 4.8021137E+001, 6.5759967E+001
 2.6002954E+002, 2.9065896E+002, 6.3509493E+001, 5.4925454E+001, 6.6423635E+001, 6.6883462E+001, 5.0388878E+001, 6.9863844E+001
 2.7003067E+002, 3.0257572E+002, 6.7503764E+001, 5.7990680E+001, 7.0697646E+001, 7.1201760E+001, 5.2976660E+001, 7.4318072E+001
 2.8002309E+002, 3.1448536E+002, 7.1836317E+001, 6.1324135E+001, 7.5330490E+001, 7.5882345E+001, 5.5789223E+001, 7.9111122E+001
 2.9004436E+002, 3.2641937E+002, 7.6523913E+001, 6.4940277E+001, 8.0338726E+001, 8.0941602E+001, 5.8841191E+001, 8.4284734E+001
 3.0002547E+002, 3.3834117E+002, 8.1576147E+001, 6.8847290E+001, 8.5731668E+001, 8.6388696E+001, 6.2139937E+001, 8.9858543E+001
 3.1004480E+002, 3.5026446E+002, 8.7017514E+001, 7.3066077E+001, 9.1533596E+001, 9.2247654E+001, 6.5705380E+001, 9.5848928E+001
 3.2002228E+002, 3.6218491E+002, 9.2856531E+001, 7.7601837E+001, 9.7753316E+001, 9.8527521E+001, 6.9536699E+001, 1.0221929E+002
 3.3002298E+002, 3.7409433E+002, 9.9095985E+001, 8.2454308E+001, 1.0439419E+002, 1.0523189E+002, 7.3631996E+001, 1.0898860E+002
 3.4003665E+002, 3.8261668E+002, 1.0576394E+002, 8.7649916E+001, 1.1148238E+002, 1.1238632E+002, 7.8018540E+001, 1.1617774E+002
 3.5004388E+002, 3.8780112E+002, 1.1279521E+002, 9.3135776E+001, 1.1894161E+002, 1.1991336E+002, 8.2627404E+001, 1.2348839E+002
 3.6002838E+002, 3.9297631E+002, 1.2005394E+002, 9.8794870E+001, 1.2662105E+002, 1.2766015E+002, 8.7334773E+001, 1.3073814E+002
 3.7002123E+002, 3.9814759E+002, 1.2745403E+002, 1.0455579E+002, 1.3442647E+002, 1.3553075E+002, 9.2089818E+001, 1.3793506E+002
 3.8000705E+002, 4.0332297E+002, 1.3494834E+002, 1.1038246E+002, 1.4230818E+002, 1.4347452E+002, 9.6876781E+001, 1.4511243E+002
 3.9000999E+002, 4.0849736E+002, 1.4253117E+002, 1.1626918E+002, 1.5026339E+002, 1.5148868E+002, 1.0170324E+002, 1.5233457E+002
 4.0002302E+002, 4.1368036E+002, 1.5021591E+002, 1.2222430E+002, 1.5831001E+002, 1.5959163E+002, 1.0657958E+002, 1.5964334E+002
 4.1001936E+002, 4.1886250E+002, 1.5798558E+002, 1.2823805E+002, 1.6642956E+002, 1.6776473E+002, 1.1150047E+002, 1.6697773E+002
 4.2002033E+002, 4.2403997E+002, 1.6580496E+002, 1.3429373E+002, 1.7458085E+002, 1.7596607E+002, 1.1645834E+002, 1.7430107E+002
 4.3002470E+002, 4.2922073E+002, 1.7366959E+002, 1.4039491E+002, 1.8275931E+002, 1.8419088E+002, 1.2146292E+002, 1.8167644E+002
 4.4001631E+002, 4.3439634E+002, 1.8157023E+002, 1.4653690E+002, 1.9095591E+002, 1.9243027E+002, 1.2651045E+002, 1.8905368E+002
 4.5001703E+002, 4.3957294E+002, 1.8951671E+002, 1.5272864E+002, 1.9918450E+002, 2.0069847E+002, 1.3160964E+002, 1.9655612E+002
 4.6002243E+002, 4.4475392E+002, 1.9754288E+002, 1.5899282E+002, 2.0748285E+002, 2.0903399E+002, 1.3677376E+002, 2.0413174E+002
 4.7001285E+002, 4.4993052E+002, 2.0561194E+002, 1.6531297E+002, 2.1580711E+002, 2.1739208E+002, 1.4199364E+002, 2.1173374E+002
 4.8001765E+002, 4.5510803E+002, 2.1370521E+002, 1.7168256E+002, 2.2413521E+002, 2.2575028E+002, 1.4726787E+002, 2.1934138E+002
 4.9001490E+002, 4.6028627E+002, 2.2179249E+002, 1.7809166E+002, 2.3243140E+002, 2.3407204E+002, 1.5259775E+002, 2.2694307E+002
 5.0001649E+002, 4.6546392E+002, 2.2990814E+002, 1.8455584E+002, 2.4074237E+002, 2.4240552E+002, 1.5799016E+002, 2.3469432E+002
 5.1002920E+002, 4.7064546E+002, 2.3807978E+002, 1.9109170E+002, 2.4909817E+002, 2.5078143E+002, 1.6344836E+002, 2.4248668E+002
 5.2003359E+002, 4.7583007E+002, 2.4628458E+002, 1.9768648E+002, 2.5747289E+002, 2.5917359E+002, 1.6896425E+002, 2.5034927E+002
 5.3001608E+002, 4.8100473E+002, 2.5451079E+002, 2.0433351E+002, 2.6585427E+002, 2.6756960E+002, 1.7453417E+002, 2.5823455E+002
 5.4000246E+002, 4.8617734E+002, 2.6274644E+002, 2.1103193E+002, 2.7422725E+002, 2.7595403E+002, 1.8016452E+002, 2.6616157E+002
 5.5003184E+002, 4.9135776E+002, 2.7099218E+002, 2.1779130E+002, 2.8258872E+002, 2.8432346E+002, 1.8586531E+002, 2.7405959E+002
 5.6001146E+002, 4.9653979E+002, 2.7920542E+002, 2.2458076E+002, 2.9089583E+002, 2.9263501E+002, 1.9161440E+002, 2.8194043E+002
 5.7003250E+002, 5.0171666E+002, 2.8737669E+002, 2.3139461E+002, 2.9914021E+002, 3.0088047E+002, 1.9741013E+002, 2.8985155E+002
 5.8001011E+002, 5.0689585E+002, 2.9558214E+002, 2.3827191E+002, 3.0741355E+002, 3.0915320E+002, 2.0327383E+002, 2.9792414E+002
 5.9001798E+002, 5.1206905E+002, 3.0381746E+002, 2.4521113E+002, 3.1570725E+002, 3.1744441E+002, 2.0919861E+002, 3.0600641E+002
 6.0000743E+002, 5.1724891E+002, 3.1203654E+002, 2.5218937E+002, 3.2396610E+002, 3.2569816E+002, 2.1517057E+002, 3.1402645E+002
 6.1001376E+002, 5.2242555E+002, 3.2021054E+002, 2.5919309E+002, 3.3215931E+002, 3.3388332E+002, 2.2119186E+002, 3.2199131E+002
 6.2000527E+002, 5.2500000E+002, 3.2833957E+002, 2.6621498E+002, 3.4029196E+002, 3.4200550E+002, 2.2724948E+002, 3.2997796E+002
 6.3001670E+002, 5.2500000E+002, 3.3641940E+002, 2.7322875E+002, 3.4836151E+002, 3.5006253E+002, 2.3328069E+002, 3.3771656E+002
 6.4001905E+002, 5.2500000E+002, 3.4424848E+002, 2.8007354E+002, 3.5614046E+002, 3.5782465E+002, 2.3911589E+002, 3.4478001E+002
 6.5002620E+002, 5.2500000E+002, 3.5170373E+002, 2.8664849E+002, 3.6350307E+002, 3.6516560E+002, 2.4468877E+002, 3.5125944E+002
 6.6002135E+002, 5.2500000E+002, 3.5873020E+002, 2.9290611E+002, 3.7039934E+002, 3.7203591E+002, 2.4997494E+002, 3.5725838E+002
 6.7003700E+002, 5.3145466E+002, 3.6542162E+002, 2.9889886E+002, 3.7694551E+002, 3.7855390E+002, 2.5502952E+002, 3.6314107E+002
 6.8000428E+002, 5.4421585E+002, 3.7199455E+002, 3.0480870E+002, 3.8338827E+002, 3.8496923E+002, 2.6008457E+002, 3.6962609E+002
 6.9001224E+002, 5.5697682E+002, 3.7881263E+002, 3.1097598E+002, 3.9011995E+002, 3.9167729E+002, 2.6552450E+002, 3.7720699E+002
 7.0001063E+002, 5.6975944E+002, 3.8610171E+002, 3.1762912E+002, 3.9736500E+002, 3.9890287E+002, 2.7154556E+002, 3.8572042E+002
 7.1002157E+002, 5.8254056E+002, 3.9389544E+002, 3.2481680E+002, 4.0514468E+002, 4.0666661E+002, 2.7815440E+002, 3.9500022E+002
 7.2001693E+002, 5.9532138E+002, 4.0221507E+002, 3.3255972E+002, 4.1347297E+002, 4.1498148E+002, 2.8534880E+002, 4.0496441E+002
 7.3002140E+002, 6.0810002E+002, 4.1107337E+002, 3.4085949E+002, 4.2236021E+002, 4.2385720E+002, 2.9311439E+002, 4.1568080E+002
 7.4001379E+002, 6.2087314E+002, 4.2049638E+002, 3.4972124E+002, 4.3183101E+002, 4.3331803E+002, 3.0143485E+002, 4.2697947E+002
 7.5002236E+002, 6.3365297E+002, 4.3035141E+002, 3.5905004E+002, 4.4172955E+002, 4.4320624E+002, 3.1022563E+002, 4.3848193E+002
 7.6001193E+002, 6.4055927E+002, 4.4056984E+002, 3.6879026E+002, 4.5198547E+002, 4.5345086E+002, 3.1945907E+002, 4.5034714E+002
 7.7000079E+002, 6.4166915E+002, 4.5098092E+002, 3.7874866E+002, 4.6241136E+002, 4.6386293E+002, 3.2884370E+002, 4.6161058E+002
 7.8001717E+002, 6.4278030E+002, 4.6112361E+002, 3.8850627E+002, 4.7250130E+002, 4.7393279E+002, 3.3790548E+002, 4.7147439E+002
 7.9000992E+002, 6.4389187E+002, 4.7067277E+002, 3.9776543E+002, 4.8192654E+002, 4.8333147E+002, 3.4640756E+002, 4.8004098E+002
 8.0000339E+002, 6.4500230E+002, 4.7955977E+002, 4.0644258E+002, 4.9064190E+002, 4.9201558E+002, 3.5433731E+002, 4.8789129E+002
 8.1000098E+002, 6.4611293E+002, 4.8794487E+002, 4.1464330E+002, 4.9883748E+002, 5.0017747E+002, 3.6181418E+002, 4.9532632E+002
 8.2000365E+002, 6.4722390E+002, 4.9588513E+002, 4.2241757E+002, 5.0657530E+002, 5.0788010E+002, 3.6888615E+002, 5.0228927E+002
 8.3002587E+002, 6.4833666E+002, 5.0339717E+002, 4.2979536E+002, 5.1387188E+002, 5.1514039E+002, 3.7558796E+002, 5.0881772E+002
 8.4002299E+002, 6.4944897E+002, 5.1047431E+002, 4.3678900E+002, 5.2071937E+002, 5.2195079E+002, 3.8194064E+002, 5.1479900E+002
 8.5000516E+002, 6.5055892E+002, 5.1716475E+002, 4.4343492E+002, 5.2717857E+002, 5.2837287E+002, 3.8798367E+002, 5.2075461E+002
 8.6000230E+002, 6.5166904E+002, 5.2359594E+002, 4.4983718E+002, 5.3338177E+002, 5.3453937E+002, 3.9379361E+002, 5.2638931E+002
 8.7002923E+002, 6.5278101E+002, 5.2969408E+002, 4.5597500E+002, 5.3923998E+002, 5.4036077E+002, 3.9936376E+002, 5.3163019E+002
 8.8001549E+002, 6.5389283E+002, 5.3544937E+002, 4.6184336E+002, 5.4474871E+002, 5.4583316E+002, 4.0469437E+002, 5.3658974E+002
 8.9001641E+002, 6.5500351E+002, 5.4091527E+002, 4.6748268E+002, 5.4996899E+002, 5.5101798E+002, 4.0982238E+002, 5.4138872E+002
 9.0001731E+002, 6.5611475E+002, 5.4612984E+002, 4.7293284E+002, 5.5493777E+002, 5.5595205E+002, 4.1478326E+002, 5.4599461E+002
 9.1000907E+002, 6.5722559E+002, 5.5112918E+002, 4.7821704E+002, 5.5969598E+002, 5.6067653E+002, 4.1959086E+002, 5.5051679E+002
 9.2000566E+002, 6.5833549E+002, 5.5591677E+002, 4.8334007E+002, 5.6424366E+002, 5.6519113E+002, 4.2424128E+002, 5.5486993E+002
 9.3001551E+002, 6.5944741E+002, 5.6050383E+002, 4.8831591E+002, 5.6859109E+002, 5.6950624E+002, 4.2874758E+002, 5.5894195E+002
 9.4001385E+002, 6.5364568E+002, 5.6484180E+002, 4.9311403E+002, 5.7268621E+002, 5.7356973E+002, 4.3308906E+002, 5.6282277E+002
 9.5000573E+002, 6.4102104E+002, 5.6874813E+002, 4.9755388E+002, 5.7631924E+002, 5.7716932E+002, 4.3698209E+002, 5.6522316E+002
 9.6000608E+002, 6.2839092E+002, 5.7166990E+002, 5.0115708E+002, 5.7888930E+002, 5.7970062E+002, 4.3990306E+002, 5.6558533E+002
 9.7003398E+002, 6.1574439E+002, 5.7347651E+002, 5.0377827E+002, 5.8028601E+002, 5.8105390E+002, 4.4178280E+002, 5.6460751E+002
 9.8002477E+002, 6.0310207E+002, 5.7421220E+002, 5.0544515E+002, 5.8057587E+002, 5.8129728E+002, 4.4271458E+002, 5.6259566E+002
 9.9001375E+002, 5.9048064E+002, 5.7403450E+002, 5.0628382E+002, 5.7993971E+002, 5.8061320E+002, 4.4285452E+002, 5.5994401E+002
 1.0000236E+003, 5.7784983E+002, 5.7308497E+002, 5.0642370E+002, 5.7852845E+002, 5.7915327E+002, 4.4233286E+002, 5.5678390E+002
 1.0100053E+003, 5.6522949E+002, 5.7138498E+002, 5.0591030E+002, 5.7635653E+002, 5.7693192E+002, 4.4119898E+002, 5.5290273E+002
 1.0200220E+003, 5.5259489E+002, 5.6901269E+002, 5.0482374E+002, 5.7351026E+002, 5.7403604E+002, 4.3955125E+002, 5.4864426E+002
 1.0300246E+003, 5.3994666E+002, 5.6606044E+002, 5.0325463E+002, 5.7008686E+002, 5.7056348E+002, 4.3747235E+002, 5.4405462E+002
 1.0400163E+003, 5.2732549E+002, 5.6263143E+002, 5.0129056E+002, 5.6619538E+002, 5.6662347E+002, 4.3504448E+002, 5.3931550E+002
 1.0500178E+003, 5.1469344E+002, 5.5879865E+002, 4.9900308E+002, 5.6190800E+002, 5.6228806E+002, 4.3233389E+002, 5.3430730E+002
 1.0600260E+003, 5.0205297E+002, 5.5451684E+002, 4.9637639E+002, 5.5716930E+002, 5.5750169E+002, 4.2932593E+002, 5.2890920E+002
 1.0700320E+003, 4.8941432E+002, 5.4982566E+002, 4.9344528E+002, 5.5202392E+002, 5.5230925E+002, 4.2606384E+002, 5.2329180E+002
 1.0800015E+003, 4.7679611E+002, 5.4482885E+002, 4.9028561E+002, 5.4658507E+002, 5.4682426E+002, 4.2262035E+002, 5.1766544E+002
 1.0900288E+003, 4.6416679E+002, 5.3952612E+002, 4.8690314E+002, 5.4084514E+002, 5.4103875E+002, 4.1898407E+002, 5.1175019E+002
 1.1000082E+003, 4.5153099E+002, 5.3394647E+002, 4.8331692E+002, 5.3483658E+002, 5.3498517E+002, 4.1517886E+002, 5.0585738E+002
 1.1100077E+003, 4.3891358E+002, 5.2819232E+002, 4.7960336E+002, 5.2866774E+002, 5.2877218E+002, 4.1127763E+002, 4.9989143E+002
 1.1200151E+003, 4.2627271E+002, 5.2218779E+002, 4.7571475E+002, 5.2225023E+002, 5.2231088E+002, 4.0723224E+002, 4.9370511E+002
 1.1300087E+003, 4.1748282E+002, 5.1604987E+002, 4.7172571E+002, 5.1571587E+002, 5.1573340E+002, 4.0312159E+002, 4.8772839E+002
 1.1400459E+003, 4.1247432E+002, 5.0980235E+002, 4.6767226E+002, 5.0908567E+002, 5.0906145E+002, 3.9899703E+002, 4.8174475E+002
 1.1500150E+003, 4.0747477E+002, 5.0353471E+002, 4.6364319E+002, 5.0245865E+002, 5.0239568E+002, 3.9497674E+002, 4.7598428E+002
 1.1600017E+003, 4.0248354E+002, 4.9737090E+002, 4.5973295E+002, 4.9596830E+002, 4.9587022E+002, 3.9113901E+002, 4.7072404E+002
 1.1700242E+003, 3.9748559E+002, 4.9134397E+002, 4.5596540E+002, 4.8964229E+002, 4.8951217E+002, 3.8747267E+002, 4.6562039E+002
 1.1800286E+003, 3.9247519E+002, 4.8543776E+002, 4.5232158E+002, 4.8345836E+002, 4.8329876E+002, 3.8395374E+002, 4.6076246E+002
 1.1900262E+003, 3.8747482E+002, 4.7967284E+002, 4.4880854E+002, 4.7743519E+002, 4.7724845E+002, 3.8058383E+002, 4.5600527E+002
 1.2000251E+003, 3.8247681E+002, 4.7405496E+002, 4.4542265E+002, 4.7157967E+002, 4.7136791E+002, 3.7735755E+002, 4.5152292E+002
 1.2100212E+003, 3.7747769E+002, 4.6856602E+002, 4.4214407E+002, 4.6586788E+002, 4.6563281E+002, 3.7425072E+002, 4.4703247E+002
 1.2200048E+003, 3.7248104E+002, 4.6316728E+002, 4.3893706E+002, 4.6025842E+002, 4.6000154E+002, 3.7123435E+002, 4.4269051E+002
 1.2300409E+003, 3.6747485E+002, 4.5792735E+002, 4.3583987E+002, 4.5482852E+002, 4.5455125E+002, 3.6833549E+002, 4.3864103E+002
 1.2400278E+003, 3.6247245E+002, 4.5278697E+002, 4.3280579E+002, 4.4950494E+002, 4.4920821E+002, 3.6549955E+002, 4.3433502E+002
 1.2500276E+003, 3.5747292E+002, 4.4764837E+002, 4.2976097E+002, 4.4418517E+002, 4.4386978E+002, 3.6268580E+002, 4.3005940E+002
 1.2600362E+003, 3.5247150E+002, 4.4260213E+002, 4.2676330E+002, 4.3897302E+002, 4.3864002E+002, 3.5994580E+002, 4.2591134E+002
 1.2700270E+003, 3.4747266E+002, 4.3756848E+002, 4.2375294E+002, 4.3377571E+002, 4.3342578E+002, 3.5721909E+002, 4.2159285E+002
 1.2800075E+003, 3.4248040E+002, 4.3258567E+002, 4.2075047E+002, 4.2863946E+002, 4.2827331E+002, 3.5453198E+002, 4.1745510E+002
 1.2900505E+003, 3.3747541E+002, 4.2768851E+002, 4.1778552E+002, 4.2360219E+002, 4.2322067E+002, 3.5190935E+002, 4.1347609E+002
 1.3000121E+003, 3.3247139E+002, 4.2288484E+002, 4.1486482E+002, 4.1866748E+002, 4.1827151E+002, 3.4935089E+002, 4.0944984E+002
 1.3100095E+003, 3.2748121E+002, 4.1811952E+002, 4.1194531E+002, 4.1377471E+002, 4.1336492E+002, 3.4681956E+002, 4.0542229E+002
 1.3200416E+003, 3.2247361E+002, 4.1340254E+002, 4.0903180E+002, 4.0893809E+002, 4.0851488E+002, 3.4431377E+002, 4.0144776E+002
 1.3300141E+003, 3.1747244E+002, 4.0871191E+002, 4.0610885E+002, 4.0413001E+002, 4.0369383E+002, 3.4182364E+002, 3.9736247E+002
 1.3400191E+003, 3.1247894E+002, 4.0407267E+002, 4.0319176E+002, 3.9938151E+002, 3.9893295E+002, 3.3937286E+002, 3.9345761E+002
 1.3500053E+003, 3.0748211E+002, 3.9947227E+002, 4.0027504E+002, 3.9467602E+002, 3.9421564E+002, 3.3694967E+002, 3.8941501E+002
 1.3600237E+003, 3.0247846E+002, 3.9488208E+002, 3.9733797E+002, 3.8998434E+002, 3.8951265E+002, 3.3454098E+002, 3.8540618E+002
 1.3700161E+003, 2.9747668E+002, 3.9031537E+002, 3.9439008E+002, 3.8532069E+002, 3.8483812E+002, 3.3215176E+002, 3.8144128E+002
 1.3800033E+003, 2.9248184E+002, 3.8585508E+002, 3.9149151E+002, 3.8077544E+002, 3.8028243E+002, 3.2982964E+002, 3.7774499E+002
 1.3900506E+003, 2.8747131E+002, 3.8143444E+002, 3.8859770E+002, 3.7627061E+002, 3.7576731E+002, 3.2752225E+002, 3.7382649E+002
 1.4000540E+003, 2.8245499E+002, 3.7698536E+002, 3.8565695E+002, 3.7173393E+002, 3.7122048E+002, 3.2519619E+002, 3.6977087E+002
 1.4100585E+003, 2.7745472E+002, 3.7256637E+002, 3.8270869E+002, 3.6723328E+002, 3.6670999E+002, 3.2289293E+002, 3.6597579E+002
 1.4200255E+003, 2.7246404E+002, 3.6822009E+002, 3.7978774E+002, 3.6281099E+002, 3.6227821E+002, 3.2062992E+002, 3.6211509E+002
 1.4300595E+003, 2.6746488E+002, 3.6387829E+002, 3.7684622E+002, 3.5839353E+002, 3.5785140E+002, 3.1836795E+002, 3.5824972E+002
 1.4400270E+003, 2.6246105E+002, 3.5957701E+002, 3.7390961E+002, 3.5402118E+002, 3.5346992E+002, 3.1613018E+002, 3.5448594E+002
 1.4500151E+003, 2.5747596E+002, 3.5531977E+002, 3.7098331E+002, 3.4969510E+002, 3.4913507E+002, 3.1391884E+002, 3.5067797E+002
 1.4600049E+003, 2.5248072E+002, 3.5111549E+002, 3.6807603E+002, 3.4542830E+002, 3.4485988E+002, 3.1174787E+002, 3.4710091E+002
 1.4700298E+003, 2.4747440E+002, 3.4702735E+002, 3.6523270E+002, 3.4128754E+002, 3.4071104E+002, 3.0964011E+002, 3.4370640E+002
 1.4800499E+003, 2.4246250E+002, 3.4298775E+002, 3.6240387E+002, 3.3719292E+002, 3.3660831E+002, 3.0753911E+002, 3.4004798E+002
 1.4900309E+003, 2.3746468E+002, 3.3890287E+002, 3.5952243E+002, 3.3304565E+002, 3.3245295E+002, 3.0541322E+002, 3.3621746E+002
 1.5000330E+003, 2.3247019E+002, 3.3480214E+002, 3.5660809E+002, 3.2888374E+002, 3.2828310E+002, 3.0328580E+002, 3.3251241E+002
 1.5100098E+003, 2.2747170E+002, 3.3078215E+002, 3.5373221E+002, 3.2481209E+002, 3.2420378E+002, 3.0121080E+002, 3.2903988E+002
 1.5200483E+003, 2.2246952E+002, 3.2680306E+002, 3.5086885E+002, 3.2078223E+002, 3.2016629E+002, 2.9915430E+002, 3.2545651E+002
 1.5300615E+003, 2.1745735E+002, 3.2281271E+002, 3.4798180E+002, 3.1673863E+002, 3.1611520E+002, 2.9709197E+002, 3.2175077E+002
 1.5400132E+003, 2.1246328E+002, 3.1883517E+002, 3.4508554E+002, 3.1270934E+002, 3.1207874E+002, 2.9504325E+002, 3.1815370E+002
