s,C,C,C,C,C,C,C
Time,"Air Temp","VTT_1","IRSN_1","TRAC_2","TRAC_4","GRS_2","NRC_2"
 0.0000000E+000, 2.5000000E+001, 2.5000000E+001, 2.5000000E+001, 2.5000000E+001, 2.5000000E+001, 2.5000000E+001, 2.5000000E+001
 1.0200000E+001, 2.5421647E+001, 2.5000022E+001, 2.5000018E+001, 2.5000026E+001, 2.5000026E+001, 2.5000027E+001, 2.5000210E+001
 2.0200000E+001, 2.6216000E+001, 2.5000620E+001, 2.5000518E+001, 2.5000721E+001, 2.5000732E+001, 2.5000688E+001, 2.5003204E+001
 3.0200000E+001, 2.9182381E+001, 2.5003259E+001, 2.5002735E+001, 2.5003731E+001, 2.5003785E+001, 2.5003305E+001, 2.5011589E+001
 4.0140420E+001, 4.4170665E+001, 2.5012177E+001, 2.5010207E+001, 2.5013926E+001, 2.5014127E+001, 2.5012308E+001, 2.5047558E+001
 5.0110409E+001, 6.0990652E+001, 2.5055294E+001, 2.5046008E+001, 2.5063226E+001, 2.5064112E+001, 2.5055247E+001, 2.5207076E+001
 6.0061203E+001, 7.7709549E+001, 2.5179752E+001, 2.5148951E+001, 2.5203773E+001, 2.5206544E+001, 2.5169804E+001, 2.5550419E+001
 7.0022409E+001, 9.4449703E+001, 2.5427576E+001, 2.5353038E+001, 2.5480805E+001, 2.5487168E+001, 2.5383413E+001, 2.6117333E+001
 8.0055463E+001, 1.1126704E+002, 2.5838015E+001, 2.5689236E+001, 2.5935928E+001, 2.5948002E+001, 2.5718782E+001, 2.6923320E+001
 9.0029516E+001, 1.2807477E+002, 2.6433208E+001, 2.6175200E+001, 2.6591861E+001, 2.6612037E+001, 2.6186654E+001, 2.7972853E+001
 1.0006309E+002, 1.4491374E+002, 2.7238873E+001, 2.6830706E+001, 2.7475790E+001, 2.7506729E+001, 2.6802083E+001, 2.9286783E+001
 1.1006911E+002, 1.6177378E+002, 2.8278585E+001, 2.7673827E+001, 2.8612546E+001, 2.8657169E+001, 2.7578863E+001, 3.0890520E+001
 1.2005426E+002, 1.7312103E+002, 2.9574041E+001, 2.8720604E+001, 3.0025019E+001, 3.0086460E+001, 2.8529095E+001, 3.2784282E+001
 1.3002724E+002, 1.7921472E+002, 3.1110155E+001, 2.9957544E+001, 3.1693679E+001, 3.1774825E+001, 2.9627714E+001, 3.4822499E+001
 1.4002228E+002, 1.8531661E+002, 3.2829608E+001, 3.1335070E+001, 3.3553176E+001, 3.3655987E+001, 3.0818771E+001, 3.6893042E+001
 1.5004732E+002, 1.9143380E+002, 3.4686264E+001, 3.2812095E+001, 3.5553803E+001, 3.5679683E+001, 3.2067511E+001, 3.8976780E+001
 1.6002713E+002, 1.9754645E+002, 3.6647289E+001, 3.4359863E+001, 3.7661572E+001, 3.7811537E+001, 3.3357075E+001, 4.1094023E+001
 1.7006103E+002, 2.0365857E+002, 3.8709489E+001, 3.5973956E+001, 3.9874553E+001, 4.0049556E+001, 3.4689885E+001, 4.3272150E+001
 1.8005640E+002, 2.0978153E+002, 4.0875673E+001, 3.7655822E+001, 4.2196481E+001, 4.2397426E+001, 3.6070802E+001, 4.5529530E+001
 1.9001604E+002, 2.1587320E+002, 4.3136019E+001, 3.9398026E+001, 4.4617003E+001, 4.4844677E+001, 3.7495201E+001, 4.7855025E+001
 2.0006599E+002, 2.2198835E+002, 4.5513507E+001, 4.1218644E+001, 4.7161163E+001, 4.7416542E+001, 3.8981286E+001, 5.0294622E+001
 2.1002147E+002, 2.3105400E+002, 4.7999767E+001, 4.3112418E+001, 4.9819434E+001, 5.0103437E+001, 4.0524112E+001, 5.2814580E+001
 2.2003299E+002, 2.4295448E+002, 5.0618632E+001, 4.5100341E+001, 5.2619521E+001, 5.2933337E+001, 4.2153357E+001, 5.5564577E+001
 2.3004665E+002, 2.5489103E+002, 5.3450043E+001, 4.7248768E+001, 5.5649578E+001, 5.5995437E+001, 4.3934140E+001, 5.8652149E+001
 2.4000173E+002, 2.6678850E+002, 5.6522800E+001, 4.9584434E+001, 5.8939931E+001, 5.9320570E+001, 4.5885728E+001, 6.2039347E+001
 2.5001781E+002, 2.7869455E+002, 5.9874383E+001, 5.2139286E+001, 6.2529547E+001, 6.2948102E+001, 4.8032236E+001, 6.5777368E+001
 2.6004778E+002, 2.9064545E+002, 6.3547521E+001, 5.4949310E+001, 6.6461921E+001, 6.6921573E+001, 5.0401361E+001, 6.9879922E+001
 2.7003463E+002, 3.0258608E+002, 6.7536934E+001, 5.8010565E+001, 7.0730622E+001, 7.1234625E+001, 5.2983817E+001, 7.4320906E+001
 2.8002322E+002, 3.1449365E+002, 7.1864385E+001, 6.1341366E+001, 7.5357714E+001, 7.5909147E+001, 5.5798988E+001, 7.9153915E+001
 2.9000202E+002, 3.2639473E+002, 7.6549914E+001, 6.4957542E+001, 8.0363270E+001, 8.0965351E+001, 5.8854634E+001, 8.4342326E+001
 3.0002731E+002, 3.3831652E+002, 8.1611761E+001, 6.8871246E+001, 8.5766805E+001, 8.6423157E+001, 6.2157204E+001, 8.9903573E+001
 3.1001941E+002, 3.5025038E+002, 8.7058105E+001, 7.3091262E+001, 9.1575088E+001, 9.2288898E+001, 6.5718634E+001, 9.5873246E+001
 3.2000302E+002, 3.6216590E+002, 9.2881368E+001, 7.7613760E+001, 9.7778051E+001, 9.8552073E+001, 6.9535922E+001, 1.0221587E+002
 3.3003417E+002, 3.7409141E+002, 9.9125400E+001, 8.2474210E+001, 1.0442147E+002, 1.0525846E+002, 7.3644301E+001, 1.0902819E+002
 3.4001857E+002, 3.8261493E+002, 1.0579274E+002, 8.7676506E+001, 1.1150566E+002, 1.1240796E+002, 7.8044896E+001, 1.1625096E+002
 3.5001046E+002, 3.8778793E+002, 1.1282165E+002, 9.3166183E+001, 1.1896026E+002, 1.1992951E+002, 8.2662832E+001, 1.2359400E+002
 3.6001673E+002, 3.9296553E+002, 1.2010040E+002, 9.8844066E+001, 1.2665953E+002, 1.2769579E+002, 8.7387152E+001, 1.3087016E+002
 3.7003617E+002, 3.9814998E+002, 1.2754470E+002, 1.0463751E+002, 1.3451297E+002, 1.3561482E+002, 9.2165729E+001, 1.3812557E+002
 3.8003717E+002, 4.0333148E+002, 1.3508595E+002, 1.1049897E+002, 1.4244446E+002, 1.4360865E+002, 9.6980036E+001, 1.4534926E+002
 3.9003156E+002, 4.0851334E+002, 1.4269241E+002, 1.1640403E+002, 1.5042348E+002, 1.5164659E+002, 1.0181897E+002, 1.5257172E+002
 4.0002364E+002, 4.1368633E+002, 1.5036189E+002, 1.2235134E+002, 1.5845004E+002, 1.5972886E+002, 1.0668754E+002, 1.5980898E+002
 4.1003809E+002, 4.1886705E+002, 1.5810313E+002, 1.2834827E+002, 1.6653554E+002, 1.6786728E+002, 1.1159443E+002, 1.6708040E+002
 4.2003155E+002, 4.2404716E+002, 1.6590273E+002, 1.3439130E+002, 1.7466461E+002, 1.7604611E+002, 1.1654396E+002, 1.7440184E+002
 4.3001263E+002, 4.2921714E+002, 1.7375164E+002, 1.4047575E+002, 1.8282946E+002, 1.8425767E+002, 1.2153246E+002, 1.8178078E+002
 4.4003715E+002, 4.3439652E+002, 1.8169505E+002, 1.4663611E+002, 1.9107991E+002, 1.9255239E+002, 1.2658787E+002, 1.8927890E+002
 4.5002128E+002, 4.3957814E+002, 1.8968715E+002, 1.5285021E+002, 1.9936075E+002, 2.0087403E+002, 1.3169391E+002, 1.9675402E+002
 4.6003097E+002, 4.4475669E+002, 1.9771541E+002, 1.5910994E+002, 2.0766175E+002, 2.0921254E+002, 1.3684675E+002, 2.0429881E+002
 4.7001638E+002, 4.4993290E+002, 2.0578369E+002, 1.6542548E+002, 2.1598524E+002, 2.1757005E+002, 1.4205929E+002, 2.1189256E+002
 4.8002246E+002, 4.5510850E+002, 2.1389786E+002, 1.7179937E+002, 2.2434077E+002, 2.2595663E+002, 1.4732795E+002, 2.1955413E+002
 4.9002793E+002, 4.6029048E+002, 2.2204751E+002, 1.7823130E+002, 2.3271340E+002, 2.3435693E+002, 1.5265602E+002, 2.2723242E+002
 5.0001934E+002, 4.6546882E+002, 2.3020030E+002, 1.8470720E+002, 2.4106716E+002, 2.4273435E+002, 1.5804213E+002, 2.3495032E+002
 5.1000186E+002, 4.7064073E+002, 2.3837444E+002, 1.9123535E+002, 2.4942671E+002, 2.5111430E+002, 1.6348648E+002, 2.4273541E+002
 5.2000389E+002, 4.7581481E+002, 2.4657696E+002, 1.9782542E+002, 2.5779789E+002, 2.5950267E+002, 1.6899825E+002, 2.5058726E+002
 5.3002563E+002, 4.8099729E+002, 2.5480789E+002, 2.0448294E+002, 2.6617856E+002, 2.6789723E+002, 1.7458320E+002, 2.5843881E+002
 5.4001287E+002, 4.8617963E+002, 2.6302409E+002, 2.1118097E+002, 2.7452329E+002, 2.7625223E+002, 1.8022472E+002, 2.6632554E+002
 5.5003190E+002, 4.9136130E+002, 2.7124799E+002, 2.1792854E+002, 2.8286100E+002, 2.8459745E+002, 1.8592206E+002, 2.7426733E+002
 5.6000293E+002, 4.9653749E+002, 2.7948268E+002, 2.2472443E+002, 2.9119625E+002, 2.9293776E+002, 1.9167065E+002, 2.8221259E+002
 5.7000433E+002, 5.0170869E+002, 2.8766615E+002, 2.3153713E+002, 2.9945577E+002, 3.0119879E+002, 1.9745468E+002, 2.9007167E+002
 5.8001352E+002, 5.0688926E+002, 2.9585809E+002, 2.3840866E+002, 3.0771033E+002, 3.0945226E+002, 2.0331486E+002, 2.9806493E+002
 5.9002371E+002, 5.1207241E+002, 3.0402742E+002, 2.4531649E+002, 3.1592413E+002, 3.1766222E+002, 2.0922427E+002, 3.0599651E+002
 6.0003128E+002, 5.1725608E+002, 3.1217102E+002, 2.5225420E+002, 3.2409752E+002, 3.2582938E+002, 2.1517836E+002, 3.1394704E+002
 6.1002293E+002, 5.2243465E+002, 3.2028613E+002, 2.5921861E+002, 3.3222928E+002, 3.3395281E+002, 2.2117472E+002, 3.2190154E+002
 6.2001696E+002, 5.2500000E+002, 3.2837251E+002, 2.6620895E+002, 3.4031948E+002, 3.4203267E+002, 2.2721059E+002, 3.2985121E+002
 6.3002392E+002, 5.2500000E+002, 3.3639820E+002, 2.7319009E+002, 3.4833062E+002, 3.5003099E+002, 2.3322437E+002, 3.3754680E+002
 6.4002505E+002, 5.2500000E+002, 3.4419514E+002, 2.8001685E+002, 3.5607656E+002, 3.5775995E+002, 2.3905505E+002, 3.4461923E+002
 6.5003093E+002, 5.2500000E+002, 3.5163677E+002, 2.8658257E+002, 3.6342768E+002, 3.6508964E+002, 2.4462267E+002, 3.5114398E+002
 6.6002587E+002, 5.2500000E+002, 3.5867987E+002, 2.9285006E+002, 3.7034549E+002, 3.7198205E+002, 2.4991671E+002, 3.5720157E+002
 6.7002196E+002, 5.3143642E+002, 3.6537318E+002, 2.9884824E+002, 3.7689353E+002, 3.7850191E+002, 2.5497878E+002, 3.6304227E+002
 6.8000480E+002, 5.4421091E+002, 3.7186808E+002, 3.0472026E+002, 3.8324427E+002, 3.8482408E+002, 2.6001147E+002, 3.6929189E+002
 6.9000438E+002, 5.5697248E+002, 3.7858474E+002, 3.1083607E+002, 3.8986228E+002, 3.9141736E+002, 2.6543045E+002, 3.7679689E+002
 7.0000373E+002, 5.6975017E+002, 3.8580347E+002, 3.1745167E+002, 3.9703375E+002, 3.9856907E+002, 2.7144071E+002, 3.8536976E+002
 7.1000948E+002, 5.8252895E+002, 3.9362079E+002, 3.2465689E+002, 4.0484656E+002, 4.0636661E+002, 2.7807294E+002, 3.9480008E+002
 7.2001065E+002, 5.9531225E+002, 4.0197681E+002, 3.3242250E+002, 4.1321834E+002, 4.1472580E+002, 2.8527723E+002, 4.0478053E+002
 7.3002987E+002, 6.0810387E+002, 4.1083534E+002, 3.4072730E+002, 4.2210434E+002, 4.2360055E+002, 2.9303992E+002, 4.1540058E+002
 7.4002411E+002, 6.2088681E+002, 4.2021202E+002, 3.4956391E+002, 4.3152274E+002, 4.3300886E+002, 3.0133915E+002, 4.2658530E+002
 7.5001038E+002, 6.3364913E+002, 4.3002822E+002, 3.5886714E+002, 4.4138353E+002, 4.4285956E+002, 3.1011686E+002, 4.3817591E+002
 7.6001561E+002, 6.4055885E+002, 4.4028009E+002, 3.6862421E+002, 4.5168210E+002, 4.5314763E+002, 3.1935892E+002, 4.5014410E+002
 7.7002235E+002, 6.4167044E+002, 4.5070939E+002, 3.7860083E+002, 4.6212526E+002, 4.6357705E+002, 3.2875476E+002, 4.6131986E+002
 7.8000250E+002, 6.4278095E+002, 4.6082321E+002, 3.8833836E+002, 4.7218514E+002, 4.7361688E+002, 3.3779897E+002, 4.7116988E+002
 7.9000017E+002, 6.4389066E+002, 4.7036703E+002, 3.9758764E+002, 4.8160927E+002, 4.8301476E+002, 3.4629181E+002, 4.7983895E+002
 8.0002568E+002, 6.4500302E+002, 4.7934361E+002, 4.0632453E+002, 4.9042415E+002, 4.9179885E+002, 3.5426589E+002, 4.8785137E+002
 8.1000146E+002, 6.4611428E+002, 4.8783595E+002, 4.1459292E+002, 4.9873789E+002, 5.0007933E+002, 3.6179054E+002, 4.9551733E+002
 8.2001034E+002, 6.4722477E+002, 4.9587043E+002, 4.2242950E+002, 5.0657500E+002, 5.0788134E+002, 3.6890156E+002, 5.0248326E+002
 8.3001828E+002, 6.4833700E+002, 5.0343650E+002, 4.2984537E+002, 5.1392588E+002, 5.1519570E+002, 3.7562654E+002, 5.0907812E+002
 8.4000103E+002, 6.4944735E+002, 5.1062666E+002, 4.3690869E+002, 5.2089727E+002, 5.2213023E+002, 3.8202880E+002, 5.1531199E+002
 8.5001816E+002, 6.5055823E+002, 5.1737227E+002, 4.4360130E+002, 5.2740578E+002, 5.2860120E+002, 3.8810002E+002, 5.2103165E+002
 8.6001025E+002, 6.5166983E+002, 5.2378168E+002, 4.5000279E+002, 5.3357763E+002, 5.3473586E+002, 3.9391512E+002, 5.2656770E+002
 8.7000217E+002, 6.5277987E+002, 5.2982789E+002, 4.5610488E+002, 5.3937924E+002, 5.4050058E+002, 3.9945868E+002, 5.3175063E+002
 8.8002905E+002, 6.5389221E+002, 5.3555992E+002, 4.6195425E+002, 5.4486287E+002, 5.4594789E+002, 4.0477210E+002, 5.3663697E+002
 8.9001883E+002, 6.5500473E+002, 5.4099626E+002, 4.6757059E+002, 5.5005031E+002, 5.5109968E+002, 4.0988301E+002, 5.4139996E+002
 9.0000336E+002, 6.5611372E+002, 5.4615674E+002, 4.7297576E+002, 5.5496136E+002, 5.5597580E+002, 4.1480902E+002, 5.4589409E+002
 9.1002736E+002, 6.5722574E+002, 5.5111433E+002, 4.7822825E+002, 5.5967602E+002, 5.6065659E+002, 4.1959912E+002, 5.5045774E+002
 9.2002468E+002, 6.5833797E+002, 5.5588994E+002, 4.8334362E+002, 5.6421105E+002, 5.6515861E+002, 4.2424800E+002, 5.5468968E+002
 9.3002748E+002, 6.5944914E+002, 5.6036799E+002, 4.8824521E+002, 5.6843942E+002, 5.6935452E+002, 4.2869731E+002, 5.5856639E+002
 9.4001351E+002, 6.5363825E+002, 5.6461775E+002, 4.9297936E+002, 5.7244299E+002, 5.7332668E+002, 4.3299577E+002, 5.6231599E+002
 9.5000607E+002, 6.4102312E+002, 5.6841135E+002, 4.9734115E+002, 5.7595815E+002, 5.7680868E+002, 4.3683579E+002, 5.6464500E+002
 9.6002908E+002, 6.2837584E+002, 5.7129521E+002, 5.0091725E+002, 5.7849388E+002, 5.7930607E+002, 4.3974729E+002, 5.6509763E+002
 9.7002789E+002, 6.1573400E+002, 5.7308652E+002, 5.0352528E+002, 5.7987878E+002, 5.8064782E+002, 4.4162095E+002, 5.6414813E+002
 9.8002546E+002, 6.0310435E+002, 5.7382895E+002, 5.0519098E+002, 5.8018007E+002, 5.8090297E+002, 4.4254849E+002, 5.6216988E+002
 9.9003252E+002, 5.9047176E+002, 5.7363782E+002, 5.0601766E+002, 5.7952991E+002, 5.8020486E+002, 4.4266964E+002, 5.5948256E+002
 1.0000140E+003, 5.7784291E+002, 5.7264747E+002, 5.0612641E+002, 5.7807449E+002, 5.7870063E+002, 4.4211850E+002, 5.5622272E+002
 1.0100292E+003, 5.6521765E+002, 5.7091681E+002, 5.0559362E+002, 5.7587211E+002, 5.7644907E+002, 4.4097650E+002, 5.5235827E+002
 1.0200031E+003, 5.5259234E+002, 5.6856737E+002, 5.0452685E+002, 5.7305586E+002, 5.7358389E+002, 4.3935521E+002, 5.4829909E+002
 1.0300148E+003, 5.3996850E+002, 5.6567958E+002, 5.0300881E+002, 5.6970385E+002, 5.7018314E+002, 4.3732821E+002, 5.4378364E+002
 1.0400198E+003, 5.2733306E+002, 5.6227752E+002, 5.0107603E+002, 5.6583929E+002, 5.6627008E+002, 4.3493435E+002, 5.3901883E+002
 1.0500295E+003, 5.1468440E+002, 5.5844690E+002, 4.9879726E+002, 5.6155296E+002, 5.6193579E+002, 4.3222723E+002, 5.3400652E+002
 1.0600039E+003, 5.0206337E+002, 5.5414855E+002, 4.9616018E+002, 5.5679442E+002, 5.5712955E+002, 4.2920003E+002, 5.2847212E+002
 1.0700090E+003, 4.8944095E+002, 5.4945874E+002, 4.9322380E+002, 5.5165240E+002, 5.5194044E+002, 4.2592829E+002, 5.2293780E+002
 1.0800236E+003, 4.7679234E+002, 5.4439233E+002, 4.9000983E+002, 5.4613572E+002, 5.4637711E+002, 4.2242178E+002, 5.1706824E+002
 1.0900319E+003, 4.6414998E+002, 5.3904405E+002, 4.8658315E+002, 5.4034946E+002, 5.4054480E+002, 4.1874307E+002, 5.1123102E+002
 1.1000320E+003, 4.5151371E+002, 5.3343253E+002, 4.8297011E+002, 5.3430745E+002, 5.3445764E+002, 4.1491797E+002, 5.0520782E+002
 1.1100067E+003, 4.3889738E+002, 5.2762715E+002, 4.7921584E+002, 5.2808553E+002, 5.2819150E+002, 4.1098572E+002, 4.9927302E+002
 1.1200206E+003, 4.2627826E+002, 5.2164292E+002, 4.7533693E+002, 5.2169417E+002, 5.2175672E+002, 4.0695692E+002, 4.9316313E+002
 1.1300346E+003, 4.1747438E+002, 5.1544796E+002, 4.7131605E+002, 5.1509757E+002, 5.1511729E+002, 4.0282671E+002, 4.8697454E+002
 1.1400031E+003, 4.1247952E+002, 5.0918396E+002, 4.6725628E+002, 5.0845348E+002, 5.0843201E+002, 3.9871284E+002, 4.8110987E+002
 1.1500024E+003, 4.0748856E+002, 5.0296810E+002, 4.6326095E+002, 5.0188652E+002, 5.0182667E+002, 3.9472253E+002, 4.7553671E+002
 1.1600281E+003, 4.0248126E+002, 4.9683763E+002, 4.5937517E+002, 4.9543377E+002, 4.9533887E+002, 3.9090022E+002, 4.7035987E+002
 1.1700052E+003, 3.9747954E+002, 4.9090987E+002, 4.5567884E+002, 4.8921590E+002, 4.8908926E+002, 3.8729515E+002, 4.6545916E+002
 1.1800243E+003, 3.9248163E+002, 4.8509295E+002, 4.5210259E+002, 4.8312512E+002, 4.8296917E+002, 3.8382880E+002, 4.6065571E+002
 1.1900438E+003, 3.8747118E+002, 4.7944098E+002, 4.4867209E+002, 4.7722324E+002, 4.7704016E+002, 3.8052121E+002, 4.5612213E+002
 1.2000280E+003, 3.8247107E+002, 4.7388887E+002, 4.4533776E+002, 4.7143234E+002, 4.7122408E+002, 3.7732803E+002, 4.5153113E+002
 1.2100333E+003, 3.7747350E+002, 4.6845114E+002, 4.4209387E+002, 4.6577225E+002, 4.6554045E+002, 3.7424066E+002, 4.4714215E+002
 1.2200509E+003, 3.7246645E+002, 4.6307678E+002, 4.3890050E+002, 4.6018452E+002, 4.5993053E+002, 3.7121908E+002, 4.4265916E+002
 1.2300042E+003, 3.6747422E+002, 4.5776447E+002, 4.3574766E+002, 4.5466901E+002, 4.5439417E+002, 3.6826350E+002, 4.3822969E+002
 1.2400396E+003, 3.6247891E+002, 4.5251028E+002, 4.3262586E+002, 4.4922304E+002, 4.4892841E+002, 3.6536314E+002, 4.3390318E+002
 1.2500404E+003, 3.5746710E+002, 4.4732480E+002, 4.2954035E+002, 4.4385765E+002, 4.4354425E+002, 3.6252471E+002, 4.2961735E+002
 1.2600433E+003, 3.5246928E+002, 4.4222839E+002, 4.2650125E+002, 4.3859357E+002, 4.3826248E+002, 3.5975552E+002, 4.2546828E+002
 1.2700378E+003, 3.4746787E+002, 4.3724023E+002, 4.2351797E+002, 4.3345073E+002, 4.3310290E+002, 3.5705967E+002, 4.2142893E+002
 1.2800097E+003, 3.4247763E+002, 4.3235954E+002, 4.2058598E+002, 4.2842619E+002, 4.2806234E+002, 3.5443315E+002, 4.1746984E+002
 1.2900344E+003, 3.3747622E+002, 4.2752495E+002, 4.1766747E+002, 4.2345202E+002, 4.2307291E+002, 3.5184306E+002, 4.1337919E+002
 1.3000414E+003, 3.3246845E+002, 4.2270684E+002, 4.1473792E+002, 4.1849844E+002, 4.1810465E+002, 3.4927046E+002, 4.0928959E+002
 1.3100150E+003, 3.2747486E+002, 4.1793380E+002, 4.1181151E+002, 4.1359634E+002, 4.1318854E+002, 3.4672929E+002, 4.0521928E+002
 1.3200478E+003, 3.2247180E+002, 4.1319945E+002, 4.0888431E+002, 4.0873991E+002, 4.0831866E+002, 3.4421414E+002, 4.0121389E+002
 1.3300123E+003, 3.1747296E+002, 4.0851510E+002, 4.0596462E+002, 4.0393953E+002, 4.0350541E+002, 3.4173336E+002, 3.9716883E+002
 1.3400241E+003, 3.1247611E+002, 4.0383083E+002, 4.0301649E+002, 3.9914033E+002, 3.9869377E+002, 3.3925872E+002, 3.9302967E+002
 1.3500178E+003, 3.0747562E+002, 3.9914067E+002, 4.0003505E+002, 3.9433880E+002, 3.9388025E+002, 3.3678768E+002, 3.8887185E+002
 1.3600476E+003, 3.0247051E+002, 3.9447217E+002, 3.9703953E+002, 3.8956528E+002, 3.8909524E+002, 3.3433548E+002, 3.8480352E+002
 1.3700129E+003, 2.9746862E+002, 3.8984160E+002, 3.9404227E+002, 3.8483480E+002, 3.8435373E+002, 3.3190969E+002, 3.8073213E+002
 1.3800391E+003, 2.9247423E+002, 3.8525572E+002, 3.9105046E+002, 3.8015548E+002, 3.7966388E+002, 3.2951754E+002, 3.7674083E+002
 1.3900044E+003, 2.8747592E+002, 3.8074514E+002, 3.8808675E+002, 3.7555995E+002, 3.7505826E+002, 3.2717228E+002, 3.7293550E+002
 1.4000001E+003, 2.8248485E+002, 3.7631710E+002, 3.8515801E+002, 3.7105163E+002, 3.7054016E+002, 3.2486696E+002, 3.6908957E+002
 1.4100130E+003, 2.7747904E+002, 3.7186978E+002, 3.8219152E+002, 3.6652013E+002, 3.6599905E+002, 3.2254461E+002, 3.6499419E+002
 1.4200033E+003, 2.7248253E+002, 3.6740470E+002, 3.7918534E+002, 3.6197269E+002, 3.6144233E+002, 3.2022211E+002, 3.6105485E+002
 1.4300033E+003, 2.6748409E+002, 3.6303869E+002, 3.7622579E+002, 3.5753562E+002, 3.5699636E+002, 3.1796110E+002, 3.5733511E+002
 1.4400078E+003, 2.6248128E+002, 3.5876204E+002, 3.7331016E+002, 3.5319434E+002, 3.5264636E+002, 3.1575115E+002, 3.5371231E+002
 1.4500521E+003, 2.5747033E+002, 3.5454042E+002, 3.7041383E+002, 3.4890968E+002, 3.4835311E+002, 3.1356454E+002, 3.5001935E+002
 1.4600024E+003, 2.5247013E+002, 3.5034912E+002, 3.6751547E+002, 3.4465412E+002, 3.4408896E+002, 3.1138333E+002, 3.4627069E+002
 1.4700195E+003, 2.4748031E+002, 3.4618330E+002, 3.6461489E+002, 3.4042533E+002, 3.3985165E+002, 3.0921798E+002, 3.4260083E+002
 1.4800462E+003, 2.4246658E+002, 3.4205315E+002, 3.6172316E+002, 3.3623676E+002, 3.3565489E+002, 3.0708363E+002, 3.3896338E+002
 1.4900360E+003, 2.3746393E+002, 3.3797429E+002, 3.5884836E+002, 3.3210306E+002, 3.3151333E+002, 3.0498095E+002, 3.3535432E+002
 1.5000412E+003, 2.3246578E+002, 3.3391789E+002, 3.5597115E+002, 3.2799141E+002, 3.2739397E+002, 3.0288772E+002, 3.3170741E+002
 1.5100037E+003, 2.2746776E+002, 3.2990969E+002, 3.5311023E+002, 3.2393168E+002, 3.2332673E+002, 3.0082409E+002, 3.2816613E+002
 1.5200123E+003, 2.2247810E+002, 3.2593050E+002, 3.5025265E+002, 3.1990181E+002, 3.1928952E+002, 2.9877582E+002, 3.2457851E+002
 1.5300246E+003, 2.1747667E+002, 3.2195703E+002, 3.4738199E+002, 3.1587766E+002, 3.1525804E+002, 2.9673042E+002, 3.2096597E+002
 1.5400686E+003, 2.1245991E+002, 3.1799240E+002, 3.4449908E+002, 3.1186361E+002, 3.1123684E+002, 2.9469040E+002, 3.1737782E+002
