s,s,kW/m2,,
FDS Time,"Device_1","flux","d32","w"
 0.0000000E+000, 0.0000000E+000,-4.6526452E-011, 0.0000000E+000, 0.0000000E+000
 1.0000000E-001, 7.5000000E-002, 1.5644232E+000, 0.0000000E+000, 0.0000000E+000
 2.0000000E-001, 1.7500000E-001, 1.5657618E+000, 0.0000000E+000, 0.0000000E+000
 3.4999999E-001, 3.0000000E-001, 1.5677101E+000, 0.0000000E+000, 0.0000000E+000
 4.4999999E-001, 4.2500000E-001, 1.5689326E+000, 0.0000000E+000, 0.0000000E+000
 5.5000001E-001, 5.2500000E-001, 1.5703147E+000, 0.0000000E+000, 0.0000000E+000
 6.0000002E-001, 6.0000000E-001, 1.5703234E+000, 0.0000000E+000, 0.0000000E+000
 6.9999999E-001, 6.7500000E-001, 1.5712137E+000, 0.0000000E+000, 0.0000000E+000
 8.1443441E-001, 7.7650853E-001, 1.5713202E+000, 0.0000000E+000, 0.0000000E+000
 9.0216184E-001, 8.7300272E-001, 1.5714472E+000, 0.0000000E+000, 0.0000000E+000
 1.0198752E+000, 9.7282195E-001, 1.5702181E+000, 0.0000000E+000, 0.0000000E+000
 1.1080204E+000, 1.0749659E+000, 1.5668718E+000, 0.0000000E+000, 0.0000000E+000
 1.2182020E+000, 1.1741294E+000, 1.5330510E+000, 0.0000000E+000, 0.0000000E+000
 1.3085508E+000, 1.2746902E+000, 1.4962266E+000, 0.0000000E+000, 0.0000000E+000
 1.4079347E+000, 1.3706879E+000, 1.4642490E+000, 0.0000000E+000, 0.0000000E+000
 1.5145904E+000, 1.4745945E+000, 1.4012788E+000, 0.0000000E+000, 0.0000000E+000
 1.6212461E+000, 1.5812502E+000, 1.3738307E+000, 0.0000000E+000, 0.0000000E+000
 1.7012379E+000, 1.6745740E+000, 1.3686890E+000, 0.0000000E+000, 0.0000000E+000
 1.8012924E+000, 1.7638264E+000, 1.3756734E+000, 0.0000000E+000, 0.0000000E+000
 1.9181088E+000, 1.8713822E+000, 1.3968273E+000, 0.0000000E+000, 0.0000000E+000
 2.0115619E+000, 1.9765170E+000, 1.4235446E+000, 0.0000000E+000, 0.0000000E+000
 2.1050150E+000, 2.0699701E+000, 1.4399015E+000, 0.0000000E+000, 0.0000000E+000
 2.2218313E+000, 2.1751049E+000, 1.4448635E+000, 0.0000000E+000, 0.0000000E+000
 2.3152845E+000, 2.2802396E+000, 1.4434008E+000, 0.0000000E+000, 0.0000000E+000
 2.4087377E+000, 2.3736927E+000, 1.4401463E+000, 0.0000000E+000, 0.0000000E+000
 2.5021908E+000, 2.4671459E+000, 1.4334216E+000, 0.0000000E+000, 0.0000000E+000
 2.6190071E+000, 2.5722806E+000, 1.4369506E+000, 0.0000000E+000, 0.0000000E+000
 2.7124603E+000, 2.6774154E+000, 1.4304267E+000, 0.0000000E+000, 0.0000000E+000
 2.8059134E+000, 2.7708685E+000, 1.4356874E+000, 0.0000000E+000, 0.0000000E+000
 2.9227297E+000, 2.8760032E+000, 1.4351320E+000, 0.0000000E+000, 0.0000000E+000
 3.0161829E+000, 2.9811380E+000, 1.4337745E+000, 2.8807411E-005,-4.1983282E-001
 3.1096361E+000, 3.0745911E+000, 1.4392484E+000, 1.1573042E-004,-1.6724081E+000
 3.2030892E+000, 3.1680442E+000, 1.4397453E+000, 1.1490049E-004,-1.6662291E+000
 3.3199055E+000, 3.2731790E+000, 1.4393896E+000, 1.1390881E-004,-1.6694991E+000
 3.4133587E+000, 3.3783138E+000, 1.4402394E+000, 1.1381633E-004,-1.6715048E+000
 3.5068119E+000, 3.4717669E+000, 1.4382289E+000, 1.1414555E-004,-1.6741177E+000
 3.6002650E+000, 3.5652200E+000, 1.4354689E+000, 1.1369328E-004,-1.6795068E+000
 3.7170813E+000, 3.6703548E+000, 1.4360810E+000, 1.1328108E-004,-1.6778630E+000
 3.8105345E+000, 3.7754895E+000, 1.4355859E+000, 1.1268916E-004,-1.6751504E+000
 3.9039876E+000, 3.8689426E+000, 1.4354344E+000, 1.1233725E-004,-1.6756570E+000
 4.0208039E+000, 3.9740774E+000, 1.4349951E+000, 1.1220325E-004,-1.6766306E+000
 4.1142569E+000, 4.0792121E+000, 1.4319995E+000, 1.1224281E-004,-1.6759847E+000
 4.2077103E+000, 4.1726653E+000, 1.4344513E+000, 1.1211808E-004,-1.6769214E+000
 4.3011632E+000, 4.2661184E+000, 1.4358826E+000, 1.1214709E-004,-1.6754810E+000
 4.4179797E+000, 4.3712531E+000, 1.4407635E+000, 1.1215708E-004,-1.6732598E+000
 4.5114326E+000, 4.4763879E+000, 1.4363803E+000, 1.1217105E-004,-1.6736094E+000
 4.6156058E+000, 4.5739368E+000, 1.4330077E+000, 1.1219876E-004,-1.6736814E+000
 4.7112885E+000, 4.6730658E+000, 1.4333942E+000, 1.1239339E-004,-1.6741831E+000
 4.8013110E+000, 4.7653020E+000, 1.4275943E+000, 1.1261385E-004,-1.6740832E+000
 4.9129381E+000, 4.8664462E+000, 1.4314803E+000, 1.1255329E-004,-1.6724951E+000
 5.0119629E+000, 4.9723529E+000, 1.4329280E+000, 1.1243485E-004,-1.6705087E+000
 5.1109872E+000, 5.0713773E+000, 1.4401885E+000, 1.1248709E-004,-1.6678946E+000
 5.2100115E+000, 5.1704017E+000, 1.4392568E+000, 1.1255769E-004,-1.6660844E+000
 5.3090358E+000, 5.2694260E+000, 1.4351792E+000, 1.1265564E-004,-1.6641182E+000
 5.4080601E+000, 5.3684504E+000, 1.4349236E+000, 1.1265679E-004,-1.6625828E+000
 5.5070844E+000, 5.4674748E+000, 1.4318328E+000, 1.1279209E-004,-1.6619049E+000
 5.6061091E+000, 5.5664992E+000, 1.4326452E+000, 1.1280648E-004,-1.6609850E+000
 5.7051334E+000, 5.6655235E+000, 1.4324729E+000, 1.1292060E-004,-1.6601780E+000
 5.8041577E+000, 5.7645479E+000, 1.4343132E+000, 1.1320669E-004,-1.6590006E+000
 5.9031820E+000, 5.8635723E+000, 1.4341556E+000, 1.1333832E-004,-1.6579321E+000
 6.0022063E+000, 5.9625967E+000, 1.4290469E+000, 1.1339148E-004,-1.6574244E+000
 6.1012306E+000, 6.0616210E+000, 1.4272799E+000, 1.1344165E-004,-1.6573441E+000
 6.2002554E+000, 6.1606454E+000, 1.4258629E+000, 1.1343938E-004,-1.6569105E+000
 6.3190846E+000, 6.2695722E+000, 1.4295850E+000, 1.1349430E-004,-1.6579073E+000
 6.4181089E+000, 6.3784990E+000, 1.4336409E+000, 1.1371862E-004,-1.6578344E+000
 6.5171332E+000, 6.4775234E+000, 1.4361723E+000, 1.1382082E-004,-1.6565463E+000
 6.6161575E+000, 6.5765478E+000, 1.4371275E+000, 1.1383407E-004,-1.6555502E+000
 6.7151818E+000, 6.6755722E+000, 1.4342983E+000, 1.1395198E-004,-1.6550679E+000
 6.8142061E+000, 6.7745965E+000, 1.4333435E+000, 1.1409816E-004,-1.6549583E+000
 6.9132309E+000, 6.8736209E+000, 1.4292526E+000, 1.1421340E-004,-1.6545559E+000
 7.0122552E+000, 6.9726453E+000, 1.4288575E+000, 1.1429724E-004,-1.6535996E+000
 7.1112795E+000, 7.0716697E+000, 1.4278301E+000, 1.1433352E-004,-1.6529915E+000
 7.2103038E+000, 7.1706940E+000, 1.4266842E+000, 1.1435422E-004,-1.6525484E+000
 7.3093281E+000, 7.2697184E+000, 1.4279038E+000, 1.1437688E-004,-1.6525251E+000
 7.4083524E+000, 7.3687428E+000, 1.4280059E+000, 1.1446758E-004,-1.6517847E+000
 7.5073771E+000, 7.4677672E+000, 1.4306344E+000, 1.1456719E-004,-1.6503445E+000
 7.6064014E+000, 7.5667915E+000, 1.4295192E+000, 1.1458609E-004,-1.6491627E+000
 7.7054257E+000, 7.6658159E+000, 1.4309858E+000, 1.1468354E-004,-1.6487362E+000
 7.8044500E+000, 7.7648403E+000, 1.4279614E+000, 1.1489282E-004,-1.6493017E+000
 7.9034743E+000, 7.8638647E+000, 1.4304907E+000, 1.1510603E-004,-1.6498211E+000
 8.0024986E+000, 7.9628890E+000, 1.4293988E+000, 1.1527943E-004,-1.6496119E+000
 8.1015234E+000, 8.0619134E+000, 1.4278253E+000, 1.1539691E-004,-1.6495255E+000
 8.2005472E+000, 8.1609378E+000, 1.4250995E+000, 1.1555797E-004,-1.6497052E+000
 8.3193769E+000, 8.2698646E+000, 1.4234136E+000, 1.1568482E-004,-1.6495725E+000
 8.4184008E+000, 8.3787914E+000, 1.4249937E+000, 1.1570260E-004,-1.6487648E+000
 8.5174255E+000, 8.4778158E+000, 1.4266427E+000, 1.1567182E-004,-1.6476781E+000
 8.6164503E+000, 8.5768402E+000, 1.4291342E+000, 1.1564528E-004,-1.6462376E+000
 8.7154741E+000, 8.6758645E+000, 1.4357924E+000, 1.1562042E-004,-1.6440631E+000
 8.8144989E+000, 8.7748889E+000, 1.4332714E+000, 1.1567272E-004,-1.6423437E+000
 8.9135227E+000, 8.8739133E+000, 1.4315350E+000, 1.1568776E-004,-1.6412852E+000
 9.0125475E+000, 8.9729377E+000, 1.4300947E+000, 1.1570822E-004,-1.6400426E+000
 9.1115723E+000, 9.0719620E+000, 1.4252033E+000, 1.1565371E-004,-1.6387677E+000
 9.2105961E+000, 9.1709864E+000, 1.4229982E+000, 1.1561726E-004,-1.6378726E+000
 9.3096209E+000, 9.2700108E+000, 1.4214048E+000, 1.1556432E-004,-1.6369718E+000
 9.4086447E+000, 9.3690352E+000, 1.4230964E+000, 1.1553445E-004,-1.6358406E+000
 9.5076694E+000, 9.4680596E+000, 1.4252475E+000, 1.1545845E-004,-1.6343250E+000
 9.6066933E+000, 9.5670839E+000, 1.4231060E+000, 1.1538343E-004,-1.6335314E+000
 9.7057180E+000, 9.6661083E+000, 1.4242433E+000, 1.1529677E-004,-1.6329375E+000
 9.8047428E+000, 9.7651327E+000, 1.4247178E+000, 1.1530870E-004,-1.6318957E+000
 9.9116888E+000, 9.8689249E+000, 1.4249943E+000, 1.1527923E-004,-1.6307250E+000
 1.0020616E+001, 9.9770448E+000, 1.4246814E+000, 1.1518891E-004,-1.6299437E+000
 1.0107757E+001, 1.0075079E+001, 1.4227867E+000, 1.1520086E-004,-1.6291802E+000
 1.0216683E+001, 1.0173113E+001, 1.4227888E+000, 1.1515053E-004,-1.6281829E+000
 1.0303825E+001, 1.0271147E+001, 1.4221366E+000, 1.1514633E-004,-1.6276110E+000
 1.0412752E+001, 1.0369181E+001, 1.4202508E+000, 1.1518157E-004,-1.6272218E+000
 1.0521679E+001, 1.0478108E+001, 1.4215811E+000, 1.1516494E-004,-1.6269181E+000
 1.0608820E+001, 1.0576142E+001, 1.4204498E+000, 1.1516415E-004,-1.6266905E+000
 1.0717747E+001, 1.0674176E+001, 1.4227523E+000, 1.1514166E-004,-1.6264072E+000
 1.0804889E+001, 1.0772211E+001, 1.4260002E+000, 1.1515463E-004,-1.6258991E+000
 1.0913815E+001, 1.0870245E+001, 1.4259532E+000, 1.1515615E-004,-1.6251227E+000
 1.1000957E+001, 1.0968279E+001, 1.4319392E+000, 1.1513117E-004,-1.6244061E+000
 1.1109883E+001, 1.1066313E+001, 1.4255121E+000, 1.1508461E-004,-1.6242395E+000
 1.1218810E+001, 1.1175240E+001, 1.4212759E+000, 1.1502777E-004,-1.6239981E+000
 1.1305952E+001, 1.1273274E+001, 1.4188017E+000, 1.1504197E-004,-1.6239312E+000
 1.1414879E+001, 1.1371308E+001, 1.4193555E+000, 1.1501666E-004,-1.6237190E+000
 1.1502020E+001, 1.1469342E+001, 1.4229294E+000, 1.1502250E-004,-1.6237413E+000
 1.1610947E+001, 1.1567376E+001, 1.4228082E+000, 1.1502572E-004,-1.6235855E+000
 1.1719873E+001, 1.1676303E+001, 1.4249784E+000, 1.1499183E-004,-1.6229243E+000
 1.1807015E+001, 1.1774337E+001, 1.4238541E+000, 1.1494836E-004,-1.6223943E+000
 1.1915942E+001, 1.1872371E+001, 1.4239223E+000, 1.1494807E-004,-1.6219203E+000
 1.2003083E+001, 1.1970406E+001, 1.4241256E+000, 1.1495917E-004,-1.6216431E+000
 1.2112010E+001, 1.2068440E+001, 1.4233533E+000, 1.1494530E-004,-1.6213219E+000
 1.2220937E+001, 1.2177366E+001, 1.4242799E+000, 1.1492991E-004,-1.6208798E+000
 1.2308079E+001, 1.2275401E+001, 1.4240791E+000, 1.1491414E-004,-1.6205046E+000
 1.2417006E+001, 1.2373435E+001, 1.4236464E+000, 1.1490913E-004,-1.6203833E+000
 1.2504147E+001, 1.2471469E+001, 1.4242168E+000, 1.1490212E-004,-1.6205379E+000
 1.2613073E+001, 1.2569503E+001, 1.4218057E+000, 1.1489770E-004,-1.6206107E+000
 1.2700215E+001, 1.2667537E+001, 1.4247849E+000, 1.1490245E-004,-1.6203641E+000
 1.2809142E+001, 1.2765571E+001, 1.4240428E+000, 1.1491645E-004,-1.6198280E+000
 1.2918069E+001, 1.2874498E+001, 1.4278024E+000, 1.1491330E-004,-1.6193708E+000
 1.3005210E+001, 1.2972532E+001, 1.4246823E+000, 1.1491317E-004,-1.6194152E+000
 1.3114137E+001, 1.3070566E+001, 1.4255004E+000, 1.1487444E-004,-1.6195033E+000
 1.3201279E+001, 1.3168600E+001, 1.4221354E+000, 1.1484885E-004,-1.6195003E+000
 1.3310205E+001, 1.3266635E+001, 1.4210480E+000, 1.1482404E-004,-1.6194078E+000
 1.3419132E+001, 1.3375561E+001, 1.4220068E+000, 1.1481730E-004,-1.6192091E+000
 1.3510631E+001, 1.3476345E+001, 1.4255938E+000, 1.1481163E-004,-1.6192173E+000
 1.3606486E+001, 1.3570540E+001, 1.4270754E+000, 1.1480953E-004,-1.6191838E+000
 1.3702342E+001, 1.3666396E+001, 1.4272035E+000, 1.1486457E-004,-1.6191479E+000
 1.3822162E+001, 1.3774234E+001, 1.4311948E+000, 1.1485635E-004,-1.6185161E+000
 1.3918017E+001, 1.3882071E+001, 1.4286138E+000, 1.1484912E-004,-1.6182955E+000
 1.4013872E+001, 1.3977927E+001, 1.4272707E+000, 1.1483513E-004,-1.6184166E+000
 1.4109728E+001, 1.4073782E+001, 1.4250931E+000, 1.1484512E-004,-1.6184315E+000
 1.4205584E+001, 1.4169638E+001, 1.4244392E+000, 1.1482502E-004,-1.6181387E+000
 1.4301439E+001, 1.4265493E+001, 1.4259399E+000, 1.1478026E-004,-1.6177189E+000
 1.4421259E+001, 1.4373331E+001, 1.4277294E+000, 1.1476004E-004,-1.6176502E+000
 1.4517115E+001, 1.4481169E+001, 1.4260263E+000, 1.1474782E-004,-1.6175974E+000
 1.4612970E+001, 1.4577024E+001, 1.4251837E+000, 1.1469395E-004,-1.6176473E+000
 1.4708825E+001, 1.4672880E+001, 1.4235629E+000, 1.1466232E-004,-1.6178118E+000
 1.4804681E+001, 1.4768735E+001, 1.4236245E+000, 1.1465215E-004,-1.6178397E+000
 1.4900537E+001, 1.4864591E+001, 1.4280407E+000, 1.1462991E-004,-1.6178612E+000
 1.5020356E+001, 1.4972428E+001, 1.4290999E+000, 1.1459689E-004,-1.6179664E+000
