s,kW/m2,,
Time,"flux","d43","w"
 0.0000000E+000, 1.9665845E+000, 0.0000000E+000, 0.0000000E+000
 1.0000000E-001, 1.9665899E+000, 0.0000000E+000, 0.0000000E+000
 2.0000000E-001, 1.9665968E+000, 0.0000000E+000, 0.0000000E+000
 3.5000000E-001, 1.9666105E+000, 0.0000000E+000, 0.0000000E+000
 4.5000000E-001, 1.9666311E+000, 0.0000000E+000, 0.0000000E+000
 5.5000000E-001, 1.9666506E+000, 0.0000000E+000, 0.0000000E+000
 6.0000000E-001, 1.9666703E+000, 0.0000000E+000, 0.0000000E+000
 7.0000000E-001, 1.9666835E+000, 0.0000000E+000, 0.0000000E+000
 8.0000000E-001, 1.9667062E+000, 0.0000000E+000, 0.0000000E+000
 9.0000000E-001, 1.9667293E+000, 0.0000000E+000, 0.0000000E+000
 1.0000000E+000, 1.9667524E+000, 0.0000000E+000, 0.0000000E+000
 1.1000000E+000, 1.9667756E+000, 0.0000000E+000, 0.0000000E+000
 1.2000000E+000, 1.9667994E+000, 0.0000000E+000, 0.0000000E+000
 1.3000000E+000, 1.9668237E+000, 0.0000000E+000, 0.0000000E+000
 1.4000000E+000, 1.9668482E+000, 0.0000000E+000, 0.0000000E+000
 1.5000000E+000, 1.9668728E+000, 0.0000000E+000, 0.0000000E+000
 1.6000000E+000, 1.9668972E+000, 0.0000000E+000, 0.0000000E+000
 1.7000000E+000, 1.9669219E+000, 0.0000000E+000, 0.0000000E+000
 1.8000000E+000, 1.9669472E+000, 0.0000000E+000, 0.0000000E+000
 1.9000000E+000, 1.9669727E+000, 0.0000000E+000, 0.0000000E+000
 2.0000000E+000, 1.9669982E+000, 0.0000000E+000, 0.0000000E+000
 2.1000000E+000, 1.9670233E+000, 0.0000000E+000, 0.0000000E+000
 2.2500000E+000, 1.9670538E+000, 0.0000000E+000, 0.0000000E+000
 2.3500000E+000, 1.9670872E+000, 0.0000000E+000, 0.0000000E+000
 2.4500000E+000, 1.9671133E+000, 0.0000000E+000, 0.0000000E+000
 2.5500000E+000, 1.9671394E+000, 0.0000000E+000, 0.0000000E+000
 2.6500000E+000, 1.9671646E+000, 0.0000000E+000, 0.0000000E+000
 2.7500000E+000, 1.9671904E+000, 0.0000000E+000, 0.0000000E+000
 2.8500000E+000, 1.9672166E+000, 0.0000000E+000, 0.0000000E+000
 2.9500000E+000, 1.9672429E+000, 0.0000000E+000, 0.0000000E+000
 3.0500000E+000, 1.9672697E+000, 0.0000000E+000, 0.0000000E+000
 3.1500000E+000, 1.9672956E+000, 0.0000000E+000, 0.0000000E+000
 3.2500000E+000, 1.9673212E+000, 0.0000000E+000, 0.0000000E+000
 3.3500000E+000, 1.9673475E+000, 0.0000000E+000, 0.0000000E+000
 3.4500000E+000, 1.9673740E+000, 0.0000000E+000, 0.0000000E+000
 3.5500000E+000, 1.9674009E+000, 0.0000000E+000, 0.0000000E+000
 3.6500000E+000, 1.9674276E+000, 0.0000000E+000, 0.0000000E+000
 3.7500000E+000, 1.9674531E+000, 0.0000000E+000, 0.0000000E+000
 3.8500000E+000, 1.9674791E+000, 0.0000000E+000, 0.0000000E+000
 3.9500000E+000, 1.9675058E+000, 0.0000000E+000, 0.0000000E+000
 4.0500000E+000, 1.9636420E+000, 0.0000000E+000, 0.0000000E+000
 4.1500000E+000, 1.6064791E+000, 0.0000000E+000, 0.0000000E+000
 4.2500000E+000, 1.1810498E+000, 0.0000000E+000, 0.0000000E+000
 4.3500000E+000, 8.1413940E-001, 0.0000000E+000, 0.0000000E+000
 4.4184051E+000, 3.5784823E-001, 0.0000000E+000, 0.0000000E+000
 4.5081922E+000, 1.7454664E-003, 0.0000000E+000, 0.0000000E+000
 4.6229639E+000, 1.5609734E-003, 4.1428139E-004,-7.4129783E+000
 4.7242755E+000, 1.1005306E-003, 3.2534240E-004,-3.3855775E+000
 4.8002592E+000, 8.4433811E-004, 2.7440290E-004,-2.5407985E+000
 4.9015709E+000, 7.8047940E-004, 2.6890523E-004,-2.9944131E+000
 5.0028826E+000, 7.3790937E-004, 2.6130082E-004,-3.0081442E+000
 5.1041942E+000, 7.0528997E-004, 2.5568440E-004,-2.8845248E+000
 5.2055059E+000, 6.7952460E-004, 2.5521823E-004,-2.9153290E+000
 5.3068175E+000, 6.5905238E-004, 2.5379848E-004,-2.9842939E+000
 5.4106620E+000, 6.4098017E-004, 2.5486461E-004,-2.9898952E+000
 5.5221048E+000, 6.2542328E-004, 2.5792333E-004,-3.0020098E+000
 5.6056869E+000, 6.1276536E-004, 2.5788805E-004,-3.0051988E+000
 5.7171297E+000, 6.0160368E-004, 2.5720293E-004,-3.0079877E+000
 5.8007118E+000, 5.9004429E-004, 2.5551758E-004,-3.0284870E+000
 5.9177268E+000, 5.8270995E-004, 2.5720550E-004,-3.0466623E+000
 6.0096671E+000, 5.7460089E-004, 2.5824494E-004,-3.0569724E+000
 6.1016074E+000, 5.6967909E-004, 2.5895426E-004,-3.0877780E+000
 6.2241945E+000, 5.6395305E-004, 2.5830558E-004,-3.1047779E+000
 6.3161349E+000, 5.5535571E-004, 2.5778754E-004,-3.1076981E+000
 6.4142045E+000, 5.5057051E-004, 2.5668265E-004,-3.1133343E+000
 6.5153389E+000, 5.4475316E-004, 2.5602301E-004,-3.1166946E+000
 6.6164733E+000, 5.3942273E-004, 2.5621748E-004,-3.1224684E+000
 6.7176076E+000, 5.3154062E-004, 2.5612474E-004,-3.1254250E+000
 6.8187420E+000, 5.2520692E-004, 2.5602725E-004,-3.1278242E+000
 6.9198763E+000, 5.1523866E-004, 2.5613689E-004,-3.1308783E+000
 7.0210107E+000, 5.0860273E-004, 2.5576689E-004,-3.1340385E+000
 7.1221451E+000, 4.9980694E-004, 2.5604705E-004,-3.1349307E+000
 7.2232794E+000, 4.9220301E-004, 2.5539106E-004,-3.1375778E+000
 7.3244138E+000, 4.8288060E-004, 2.5577575E-004,-3.1410983E+000
 7.4255481E+000, 4.7475550E-004, 2.5633314E-004,-3.1392456E+000
 7.5266825E+000, 4.6693119E-004, 2.5561734E-004,-3.1453986E+000
 7.6278168E+000, 4.6053358E-004, 2.5533092E-004,-3.1479451E+000
 7.7289512E+000, 4.5263849E-004, 2.5486722E-004,-3.1499182E+000
 7.8300856E+000, 4.4672743E-004, 2.5455122E-004,-3.1515255E+000
 7.9312199E+000, 4.4034866E-004, 2.5458871E-004,-3.1627799E+000
 8.0323543E+000, 4.3447427E-004, 2.5405127E-004,-3.1666058E+000
 8.1334886E+000, 4.2699510E-004, 2.5348002E-004,-3.1662390E+000
 8.2009115E+000, 4.2169647E-004, 2.5403669E-004,-3.1686009E+000
 8.3020459E+000, 4.1699866E-004, 2.5470571E-004,-3.1717391E+000
 8.4031803E+000, 4.1057836E-004, 2.5502929E-004,-3.1693967E+000
 8.5043146E+000, 4.0499644E-004, 2.5502528E-004,-3.1708619E+000
 8.6054490E+000, 4.0020304E-004, 2.5483165E-004,-3.1665507E+000
 8.7065833E+000, 3.9511737E-004, 2.5498749E-004,-3.1706759E+000
 8.8077177E+000, 3.8977228E-004, 2.5567627E-004,-3.1725491E+000
 8.9088520E+000, 3.8359013E-004, 2.5488763E-004,-3.1712729E+000
 9.0099864E+000, 1.3941854E-003, 2.5357710E-004,-3.1725294E+000
 9.1111208E+000, 9.6284915E-002, 2.5391506E-004,-3.1754386E+000
 9.2122551E+000, 5.6158087E-001, 2.5431609E-004,-3.1742935E+000
 9.3133895E+000, 1.0098777E+000, 2.5385968E-004,-3.1758694E+000
 9.4145238E+000, 1.5371576E+000, 2.5360621E-004,-3.1784007E+000
 9.5156582E+000, 1.6373187E+000, 2.5276587E-004,-3.1757847E+000
 9.6167925E+000, 1.6395827E+000, 2.5242393E-004,-3.1764424E+000
 9.7179269E+000, 1.6429953E+000, 2.5202918E-004,-3.1747375E+000
 9.8190613E+000, 1.6452896E+000, 2.5215012E-004,-3.1794781E+000
 9.9201956E+000, 1.6453201E+000, 2.5331668E-004,-3.1857483E+000
 1.0021330E+001, 1.6448190E+000, 2.5315876E-004,-3.1841654E+000
 1.0122464E+001, 1.6414196E+000, 2.5349643E-004,-3.1825527E+000
 1.0223599E+001, 1.6428379E+000, 2.5397882E-004,-3.1817059E+000
 1.0324733E+001, 1.6434614E+000, 2.5405468E-004,-3.1823879E+000
 1.0425867E+001, 1.6471493E+000, 2.5414961E-004,-3.1789805E+000
 1.0527002E+001, 1.6472379E+000, 2.5434698E-004,-3.1774926E+000
 1.0628136E+001, 1.6456986E+000, 2.5422260E-004,-3.1783008E+000
 1.0729270E+001, 1.6447099E+000, 2.5438949E-004,-3.1791598E+000
 1.0830405E+001, 1.6440511E+000, 2.5422583E-004,-3.1794141E+000
 1.0931539E+001, 1.6445121E+000, 2.5357970E-004,-3.1815292E+000
 1.1032674E+001, 1.6445583E+000, 2.5231466E-004,-3.1819640E+000
 1.1100096E+001, 1.6455611E+000, 2.5207345E-004,-3.1799256E+000
 1.1201231E+001, 1.6448215E+000, 2.5252471E-004,-3.1793091E+000
 1.1302365E+001, 1.6456304E+000, 2.5250016E-004,-3.1775822E+000
 1.1403500E+001, 1.6461457E+000, 2.5238629E-004,-3.1771817E+000
 1.1504634E+001, 1.6449209E+000, 2.5176932E-004,-3.1761114E+000
 1.1605768E+001, 1.6434536E+000, 2.5139303E-004,-3.1745869E+000
 1.1706903E+001, 1.6424299E+000, 2.5165341E-004,-3.1764058E+000
 1.1808037E+001, 1.6403006E+000, 2.5138026E-004,-3.1743035E+000
 1.1909171E+001, 1.6386211E+000, 2.5150830E-004,-3.1737063E+000
 1.2010306E+001, 1.6385433E+000, 2.5149890E-004,-3.1733947E+000
 1.2111440E+001, 1.6352154E+000, 2.5151596E-004,-3.1733798E+000
 1.2212574E+001, 1.6404969E+000, 2.5200043E-004,-3.1738351E+000
 1.2313709E+001, 1.6455545E+000, 2.5261672E-004,-3.1741469E+000
 1.2414843E+001, 1.6488820E+000, 2.5302048E-004,-3.1715208E+000
 1.2515977E+001, 1.6500403E+000, 2.5367781E-004,-3.1731296E+000
 1.2617112E+001, 1.6458815E+000, 2.5350649E-004,-3.1741186E+000
 1.2718246E+001, 1.6430059E+000, 2.5357761E-004,-3.1744540E+000
 1.2819381E+001, 1.6412541E+000, 2.5361659E-004,-3.1740632E+000
 1.2920515E+001, 1.6435510E+000, 2.5374448E-004,-3.1734849E+000
 1.3021649E+001, 1.6466319E+000, 2.5507963E-004,-3.1797304E+000
 1.3122784E+001, 1.6515954E+000, 2.5490300E-004,-3.1795025E+000
 1.3223918E+001, 1.6543410E+000, 2.5448968E-004,-3.1778933E+000
 1.3325052E+001, 1.6546005E+000, 2.5446495E-004,-3.1791637E+000
 1.3426187E+001, 1.6516109E+000, 2.5465605E-004,-3.1819361E+000
 1.3527321E+001, 1.6470830E+000, 2.5504892E-004,-3.1859298E+000
 1.3628455E+001, 1.6427364E+000, 2.5500965E-004,-3.1860702E+000
 1.3729590E+001, 1.6409401E+000, 2.5486592E-004,-3.1857234E+000
 1.3830724E+001, 1.6384652E+000, 2.5493780E-004,-3.1843145E+000
 1.3931858E+001, 1.6392418E+000, 2.5480652E-004,-3.1845396E+000
 1.4032993E+001, 1.6384995E+000, 2.5464369E-004,-3.1839600E+000
 1.4100416E+001, 1.6391538E+000, 2.5447903E-004,-3.1826611E+000
 1.4201550E+001, 1.6409826E+000, 2.5406703E-004,-3.1816356E+000
 1.4302684E+001, 1.6430620E+000, 2.5387188E-004,-3.1846924E+000
 1.4403819E+001, 1.6438601E+000, 2.5365216E-004,-3.1871583E+000
 1.4504953E+001, 1.6429580E+000, 2.5343664E-004,-3.1876544E+000
 1.4606088E+001, 1.6384207E+000, 2.5338271E-004,-3.1871169E+000
 1.4707222E+001, 1.6379259E+000, 2.5330652E-004,-3.1872635E+000
 1.4808356E+001, 1.6392577E+000, 2.5317579E-004,-3.1878347E+000
 1.4909491E+001, 1.6403221E+000, 2.5350251E-004,-3.1889300E+000
 1.5010625E+001, 1.6396671E+000, 2.5408917E-004,-3.1902521E+000
