s,kW/m2,,
Time,"flux","d43","w"
 0.0000000E+000, 1.9665845E+000, 0.0000000E+000, 0.0000000E+000
 1.0000000E-001, 1.9665899E+000, 0.0000000E+000, 0.0000000E+000
 2.0000000E-001, 1.9665968E+000, 0.0000000E+000, 0.0000000E+000
 3.5000000E-001, 1.9666105E+000, 0.0000000E+000, 0.0000000E+000
 4.5000000E-001, 1.9666311E+000, 0.0000000E+000, 0.0000000E+000
 5.5000000E-001, 1.9666506E+000, 0.0000000E+000, 0.0000000E+000
 6.0000000E-001, 1.9666703E+000, 0.0000000E+000, 0.0000000E+000
 7.0000000E-001, 1.9666835E+000, 0.0000000E+000, 0.0000000E+000
 8.0000000E-001, 1.9667062E+000, 0.0000000E+000, 0.0000000E+000
 9.0000000E-001, 1.9667293E+000, 0.0000000E+000, 0.0000000E+000
 1.0000000E+000, 1.9667524E+000, 0.0000000E+000, 0.0000000E+000
 1.1000000E+000, 1.9667756E+000, 0.0000000E+000, 0.0000000E+000
 1.2000000E+000, 1.9667994E+000, 0.0000000E+000, 0.0000000E+000
 1.3000000E+000, 1.9668237E+000, 0.0000000E+000, 0.0000000E+000
 1.4000000E+000, 1.9668482E+000, 0.0000000E+000, 0.0000000E+000
 1.5000000E+000, 1.9668728E+000, 0.0000000E+000, 0.0000000E+000
 1.6000000E+000, 1.9668972E+000, 0.0000000E+000, 0.0000000E+000
 1.7000000E+000, 1.9669219E+000, 0.0000000E+000, 0.0000000E+000
 1.8000000E+000, 1.9669472E+000, 0.0000000E+000, 0.0000000E+000
 1.9000000E+000, 1.9669727E+000, 0.0000000E+000, 0.0000000E+000
 2.0000000E+000, 1.9669982E+000, 0.0000000E+000, 0.0000000E+000
 2.1000000E+000, 1.9670233E+000, 0.0000000E+000, 0.0000000E+000
 2.2500000E+000, 1.9670538E+000, 0.0000000E+000, 0.0000000E+000
 2.3500000E+000, 1.9670872E+000, 0.0000000E+000, 0.0000000E+000
 2.4500000E+000, 1.9671133E+000, 0.0000000E+000, 0.0000000E+000
 2.5500000E+000, 1.9671394E+000, 0.0000000E+000, 0.0000000E+000
 2.6500000E+000, 1.9671646E+000, 0.0000000E+000, 0.0000000E+000
 2.7500000E+000, 1.9671904E+000, 0.0000000E+000, 0.0000000E+000
 2.8500000E+000, 1.9672166E+000, 0.0000000E+000, 0.0000000E+000
 2.9500000E+000, 1.9672429E+000, 0.0000000E+000, 0.0000000E+000
 3.0500000E+000, 1.9672697E+000, 0.0000000E+000, 0.0000000E+000
 3.1500000E+000, 1.9672956E+000, 0.0000000E+000, 0.0000000E+000
 3.2500000E+000, 1.9673212E+000, 0.0000000E+000, 0.0000000E+000
 3.3500000E+000, 1.9673475E+000, 0.0000000E+000, 0.0000000E+000
 3.4500000E+000, 1.9673740E+000, 0.0000000E+000, 0.0000000E+000
 3.5500000E+000, 1.9674009E+000, 0.0000000E+000, 0.0000000E+000
 3.6500000E+000, 1.9674276E+000, 0.0000000E+000, 0.0000000E+000
 3.7500000E+000, 1.9674531E+000, 0.0000000E+000, 0.0000000E+000
 3.8500000E+000, 1.9674791E+000, 0.0000000E+000, 0.0000000E+000
 3.9500000E+000, 1.9675058E+000, 0.0000000E+000, 0.0000000E+000
 4.0500000E+000, 1.9636420E+000, 0.0000000E+000, 0.0000000E+000
 4.1500000E+000, 1.6064791E+000, 0.0000000E+000, 0.0000000E+000
 4.2500000E+000, 1.1810091E+000, 2.4438393E-004,-3.3604127E+000
 4.3500000E+000, 8.1403090E-001, 4.5255027E-004,-4.8669801E+000
 4.4500000E+000, 3.5765629E-001, 4.1978898E-004,-3.3043907E+000
 4.5500000E+000, 1.4288209E-003, 3.6131678E-004,-2.4104808E+000
 4.6500000E+000, 1.3812875E-003, 3.6170659E-004,-2.5197070E+000
 4.7500000E+000, 1.2391399E-003, 3.4261878E-004,-2.1025642E+000
 4.8500000E+000, 1.0448000E-003, 3.3401162E-004,-1.9579069E+000
 4.9500000E+000, 8.6699539E-004, 3.2538834E-004,-1.8178339E+000
 5.0500000E+000, 7.5933538E-004, 3.1762333E-004,-1.6904436E+000
 5.1500000E+000, 7.4552020E-004, 3.1155350E-004,-1.6517612E+000
 5.2500000E+000, 7.3565948E-004, 3.0296283E-004,-1.6346609E+000
 5.3500000E+000, 7.2553913E-004, 2.9999756E-004,-1.6348702E+000
 5.4500000E+000, 7.2114006E-004, 3.0109099E-004,-1.6687641E+000
 5.5500000E+000, 7.1573818E-004, 2.9999504E-004,-1.7015781E+000
 5.6500000E+000, 7.1110204E-004, 2.9883034E-004,-1.7445730E+000
 5.7500000E+000, 7.0753930E-004, 2.9533016E-004,-1.7547233E+000
 5.8500000E+000, 7.0619318E-004, 2.9817088E-004,-1.7839185E+000
 5.9500000E+000, 7.0066852E-004, 3.0460228E-004,-1.8223807E+000
 6.0500000E+000, 6.9622560E-004, 3.0444117E-004,-1.8272683E+000
 6.1500000E+000, 6.9227506E-004, 3.0037312E-004,-1.8551593E+000
 6.2500000E+000, 6.8994400E-004, 2.9857486E-004,-1.8689456E+000
 6.3500000E+000, 6.8299093E-004, 2.9942083E-004,-1.8769949E+000
 6.4500000E+000, 6.7513031E-004, 3.0212214E-004,-1.8878890E+000
 6.5500000E+000, 6.6732545E-004, 3.0433962E-004,-1.8895988E+000
 6.6500000E+000, 6.5934610E-004, 3.0423504E-004,-1.8903666E+000
 6.7500000E+000, 6.5103601E-004, 3.0249143E-004,-1.8953430E+000
 6.8500000E+000, 6.4532915E-004, 3.0114834E-004,-1.9093598E+000
 6.9500000E+000, 6.3702419E-004, 3.0299417E-004,-1.9140593E+000
 7.0500000E+000, 6.3117165E-004, 3.0486764E-004,-1.9168736E+000
 7.1500000E+000, 6.2624324E-004, 3.0425746E-004,-1.9131686E+000
 7.2500000E+000, 6.1908341E-004, 3.0617575E-004,-1.9166926E+000
 7.3500000E+000, 6.1215280E-004, 3.0522461E-004,-1.9133588E+000
 7.4500000E+000, 6.0746118E-004, 3.0391316E-004,-1.9165649E+000
 7.5500000E+000, 6.0292741E-004, 3.0213453E-004,-1.9139913E+000
 7.6500000E+000, 5.9759708E-004, 3.0047297E-004,-1.9146389E+000
 7.7500000E+000, 5.9130934E-004, 2.9833162E-004,-1.9176045E+000
 7.8500000E+000, 5.8596951E-004, 2.9679723E-004,-1.9249873E+000
 7.9500000E+000, 5.7724776E-004, 2.9779998E-004,-1.9373775E+000
 8.0500000E+000, 5.6990686E-004, 2.9662889E-004,-1.9405011E+000
 8.1500000E+000, 5.6288891E-004, 2.9746710E-004,-1.9415887E+000
 8.2500000E+000, 5.5672460E-004, 2.9831087E-004,-1.9438484E+000
 8.3500000E+000, 5.4844733E-004, 2.9823609E-004,-1.9442924E+000
 8.4500000E+000, 5.4374929E-004, 2.9965935E-004,-1.9506662E+000
 8.5000000E+000, 5.3743263E-004, 3.0016492E-004,-1.9493682E+000
 8.6000000E+000, 5.3502087E-004, 3.0113002E-004,-1.9510175E+000
 8.7000000E+000, 5.2931984E-004, 3.0102807E-004,-1.9596978E+000
 8.8000000E+000, 5.2368575E-004, 2.9938941E-004,-1.9635385E+000
 8.9000000E+000, 5.1791107E-004, 2.9967710E-004,-1.9671179E+000
 9.0000000E+000, 5.1080038E-004, 2.9843330E-004,-1.9682297E+000
 9.1000000E+000, 1.7144141E-001, 2.9921317E-004,-1.9768435E+000
 9.2000000E+000, 5.4590609E-001, 3.0006017E-004,-1.9786826E+000
 9.3000000E+000, 9.2576567E-001, 3.0065763E-004,-1.9816803E+000
 9.4000000E+000, 1.3195248E+000, 3.0063279E-004,-1.9806909E+000
 9.5000000E+000, 1.7076757E+000, 2.9977948E-004,-1.9828599E+000
 9.6000000E+000, 1.8785847E+000, 3.0013154E-004,-1.9849705E+000
 9.7000000E+000, 1.8791764E+000, 3.0079803E-004,-1.9879376E+000
 9.8000000E+000, 1.8797996E+000, 3.0162163E-004,-1.9891377E+000
 9.9000000E+000, 1.8797214E+000, 3.0315837E-004,-1.9923805E+000
 1.0000000E+001, 1.8792643E+000, 3.0355852E-004,-2.0000839E+000
 1.0100000E+001, 1.8792074E+000, 3.0252652E-004,-2.0003712E+000
 1.0200000E+001, 1.8792675E+000, 3.0256373E-004,-1.9974807E+000
 1.0300000E+001, 1.8794645E+000, 3.0343288E-004,-1.9984262E+000
 1.0400000E+001, 1.8805016E+000, 3.0256813E-004,-1.9963773E+000
 1.0500000E+001, 1.8810797E+000, 3.0205288E-004,-1.9923415E+000
 1.0600000E+001, 1.8806360E+000, 3.0160849E-004,-1.9918868E+000
 1.0700000E+001, 1.8802879E+000, 3.0056868E-004,-1.9943407E+000
 1.0800000E+001, 1.8797458E+000, 3.0034631E-004,-1.9987338E+000
 1.0900000E+001, 1.8791721E+000, 3.0059799E-004,-1.9972948E+000
 1.1000000E+001, 1.8794885E+000, 2.9992694E-004,-1.9970975E+000
 1.1100000E+001, 1.8802952E+000, 2.9940820E-004,-1.9955051E+000
 1.1200000E+001, 1.8811050E+000, 2.9906615E-004,-1.9963389E+000
 1.1300000E+001, 1.8818481E+000, 2.9853763E-004,-1.9949646E+000
 1.1400000E+001, 1.8817723E+000, 2.9795548E-004,-1.9924721E+000
 1.1500000E+001, 1.8810485E+000, 2.9778595E-004,-1.9901863E+000
 1.1600000E+001, 1.8802755E+000, 2.9680046E-004,-1.9887664E+000
 1.1700000E+001, 1.8796756E+000, 2.9598333E-004,-1.9881034E+000
 1.1800000E+001, 1.8794706E+000, 2.9511231E-004,-1.9855025E+000
 1.1900000E+001, 1.8794255E+000, 2.9422982E-004,-1.9839411E+000
 1.2000000E+001, 1.8791008E+000, 2.9530498E-004,-1.9894232E+000
 1.2100000E+001, 1.8793431E+000, 2.9457546E-004,-1.9886866E+000
 1.2200000E+001, 1.8796016E+000, 2.9424510E-004,-1.9870687E+000
 1.2300000E+001, 1.8790855E+000, 2.9394648E-004,-1.9865840E+000
 1.2400000E+001, 1.8785567E+000, 2.9335745E-004,-1.9864082E+000
 1.2500000E+001, 1.8782306E+000, 2.9358014E-004,-1.9846715E+000
 1.2600000E+001, 1.8777589E+000, 2.9334033E-004,-1.9841385E+000
 1.2700000E+001, 1.8778385E+000, 2.9287147E-004,-1.9844731E+000
 1.2800000E+001, 1.8785515E+000, 2.9390213E-004,-1.9852894E+000
 1.2900000E+001, 1.8795510E+000, 2.9346734E-004,-1.9843460E+000
 1.3000000E+001, 1.8811668E+000, 2.9416757E-004,-1.9869970E+000
 1.3100000E+001, 1.8823197E+000, 2.9369375E-004,-1.9858909E+000
 1.3200000E+001, 1.8824583E+000, 2.9453619E-004,-1.9879635E+000
 1.3300000E+001, 1.8820528E+000, 2.9476265E-004,-1.9914020E+000
 1.3400000E+001, 1.8816518E+000, 2.9520521E-004,-1.9904601E+000
 1.3500000E+001, 1.8805462E+000, 2.9529116E-004,-1.9882210E+000
 1.3600000E+001, 1.8789799E+000, 2.9612070E-004,-1.9879201E+000
 1.3700000E+001, 1.8782148E+000, 2.9586891E-004,-1.9865661E+000
 1.3800000E+001, 1.8779988E+000, 2.9544645E-004,-1.9844246E+000
 1.3900000E+001, 1.8768738E+000, 2.9494280E-004,-1.9824670E+000
 1.4000000E+001, 1.8763791E+000, 2.9486515E-004,-1.9821954E+000
 1.4100000E+001, 1.8778605E+000, 2.9556334E-004,-1.9852779E+000
 1.4200000E+001, 1.8794109E+000, 2.9588497E-004,-1.9854514E+000
 1.4300000E+001, 1.8799554E+000, 2.9602089E-004,-1.9860604E+000
 1.4400000E+001, 1.8807625E+000, 2.9669025E-004,-1.9872627E+000
 1.4500000E+001, 1.8816685E+000, 2.9693574E-004,-1.9866300E+000
 1.4600000E+001, 1.8812780E+000, 2.9740134E-004,-1.9873140E+000
 1.4700000E+001, 1.8801493E+000, 2.9868823E-004,-1.9899707E+000
 1.4800000E+001, 1.8795713E+000, 2.9854060E-004,-1.9898482E+000
 1.4900000E+001, 1.8796155E+000, 2.9914077E-004,-1.9936236E+000
 1.5000000E+001, 1.8794560E+000, 2.9905217E-004,-1.9951297E+000
