s,kW/m2,,
Time,"flux","d43","w"
 0.0000000E+000, 1.9665845E+000, 0.0000000E+000, 0.0000000E+000
 1.0000000E-001, 1.9665899E+000, 0.0000000E+000, 0.0000000E+000
 2.0000000E-001, 1.9665968E+000, 0.0000000E+000, 0.0000000E+000
 3.5000000E-001, 1.9666105E+000, 0.0000000E+000, 0.0000000E+000
 4.5000000E-001, 1.9666311E+000, 0.0000000E+000, 0.0000000E+000
 5.5000000E-001, 1.9666506E+000, 0.0000000E+000, 0.0000000E+000
 6.0000000E-001, 1.9666703E+000, 0.0000000E+000, 0.0000000E+000
 7.0000000E-001, 1.9666835E+000, 0.0000000E+000, 0.0000000E+000
 8.0000000E-001, 1.9667062E+000, 0.0000000E+000, 0.0000000E+000
 9.0000000E-001, 1.9667293E+000, 0.0000000E+000, 0.0000000E+000
 1.0000000E+000, 1.9667524E+000, 0.0000000E+000, 0.0000000E+000
 1.1000000E+000, 1.9667756E+000, 0.0000000E+000, 0.0000000E+000
 1.2000000E+000, 1.9667994E+000, 0.0000000E+000, 0.0000000E+000
 1.3000000E+000, 1.9668237E+000, 0.0000000E+000, 0.0000000E+000
 1.4000000E+000, 1.9668482E+000, 0.0000000E+000, 0.0000000E+000
 1.5000000E+000, 1.9668728E+000, 0.0000000E+000, 0.0000000E+000
 1.6000000E+000, 1.9668972E+000, 0.0000000E+000, 0.0000000E+000
 1.7000000E+000, 1.9669219E+000, 0.0000000E+000, 0.0000000E+000
 1.8000000E+000, 1.9669472E+000, 0.0000000E+000, 0.0000000E+000
 1.9000000E+000, 1.9669727E+000, 0.0000000E+000, 0.0000000E+000
 2.0000000E+000, 1.9669982E+000, 0.0000000E+000, 0.0000000E+000
 2.1000000E+000, 1.9670233E+000, 0.0000000E+000, 0.0000000E+000
 2.2500000E+000, 1.9670538E+000, 0.0000000E+000, 0.0000000E+000
 2.3500000E+000, 1.9670872E+000, 0.0000000E+000, 0.0000000E+000
 2.4500000E+000, 1.9671133E+000, 0.0000000E+000, 0.0000000E+000
 2.5500000E+000, 1.9671394E+000, 0.0000000E+000, 0.0000000E+000
 2.6500000E+000, 1.9671646E+000, 0.0000000E+000, 0.0000000E+000
 2.7500000E+000, 1.9671904E+000, 0.0000000E+000, 0.0000000E+000
 2.8500000E+000, 1.9672166E+000, 0.0000000E+000, 0.0000000E+000
 2.9500000E+000, 1.9672429E+000, 0.0000000E+000, 0.0000000E+000
 3.0500000E+000, 1.9672697E+000, 0.0000000E+000, 0.0000000E+000
 3.1500000E+000, 1.9672956E+000, 0.0000000E+000, 0.0000000E+000
 3.2500000E+000, 1.9673212E+000, 0.0000000E+000, 0.0000000E+000
 3.3500000E+000, 1.9673475E+000, 0.0000000E+000, 0.0000000E+000
 3.4500000E+000, 1.9673740E+000, 0.0000000E+000, 0.0000000E+000
 3.5500000E+000, 1.9674009E+000, 0.0000000E+000, 0.0000000E+000
 3.6500000E+000, 1.9674276E+000, 0.0000000E+000, 0.0000000E+000
 3.7500000E+000, 1.9674531E+000, 0.0000000E+000, 0.0000000E+000
 3.8500000E+000, 1.9674791E+000, 0.0000000E+000, 0.0000000E+000
 3.9500000E+000, 1.9675058E+000, 0.0000000E+000, 0.0000000E+000
 4.0500000E+000, 1.9636420E+000, 0.0000000E+000, 0.0000000E+000
 4.1500000E+000, 1.6064791E+000, 0.0000000E+000, 0.0000000E+000
 4.2500000E+000, 1.1810508E+000, 0.0000000E+000, 0.0000000E+000
 4.3500000E+000, 8.1412420E-001, 2.1950187E-004,-2.0732232E+000
 4.4500000E+000, 3.5778218E-001, 2.2824939E-004,-2.6153713E+000
 4.5500000E+000, 1.5459397E-003, 2.1455814E-004,-2.1184336E+000
 4.6500000E+000, 1.4681556E-003, 2.0985611E-004,-2.0535965E+000
 4.7500000E+000, 1.2464787E-003, 1.9514229E-004,-1.7005392E+000
 4.8500000E+000, 9.6235038E-004, 1.9071339E-004,-1.5948627E+000
 4.9500000E+000, 7.1390035E-004, 1.8203873E-004,-1.5108141E+000
 5.0500000E+000, 5.7272764E-004, 1.7699224E-004,-1.5198305E+000
 5.1500000E+000, 5.4538459E-004, 1.7375134E-004,-1.5544490E+000
 5.2500000E+000, 5.2663022E-004, 1.7076451E-004,-1.6090475E+000
 5.3500000E+000, 5.1389290E-004, 1.7080761E-004,-1.6676521E+000
 5.4500000E+000, 5.0524156E-004, 1.7172775E-004,-1.7044071E+000
 5.5500000E+000, 5.0038200E-004, 1.7236454E-004,-1.7440261E+000
 5.6500000E+000, 4.9736216E-004, 1.7307587E-004,-1.7772320E+000
 5.7500000E+000, 4.9829604E-004, 1.7115302E-004,-1.7933462E+000
 5.8500000E+000, 4.9178592E-004, 1.7221191E-004,-1.8119895E+000
 5.9500000E+000, 4.8923677E-004, 1.7417436E-004,-1.8390965E+000
 6.0500000E+000, 4.8361923E-004, 1.7564064E-004,-1.8688693E+000
 6.1500000E+000, 4.8021697E-004, 1.7759568E-004,-1.9063823E+000
 6.2500000E+000, 4.7993673E-004, 1.7762552E-004,-1.9240912E+000
 6.3500000E+000, 4.8216036E-004, 1.7722416E-004,-1.9310120E+000
 6.4500000E+000, 4.7864260E-004, 1.7782464E-004,-1.9445479E+000
 6.5500000E+000, 4.7392028E-004, 1.7741851E-004,-1.9478326E+000
 6.6500000E+000, 4.6767771E-004, 1.7776500E-004,-1.9567961E+000
 6.7500000E+000, 4.5794683E-004, 1.7737635E-004,-1.9627068E+000
 6.8500000E+000, 4.4449555E-004, 1.7700964E-004,-1.9672162E+000
 6.9500000E+000, 4.3222274E-004, 1.7638416E-004,-1.9701118E+000
 7.0500000E+000, 4.2301727E-004, 1.7753212E-004,-1.9791166E+000
 7.1500000E+000, 4.1274363E-004, 1.7703692E-004,-1.9803460E+000
 7.2500000E+000, 4.0520953E-004, 1.7716179E-004,-1.9830203E+000
 7.3500000E+000, 4.0342280E-004, 1.7685357E-004,-1.9803772E+000
 7.4500000E+000, 3.9513137E-004, 1.7672470E-004,-1.9795960E+000
 7.5500000E+000, 3.9018381E-004, 1.7677063E-004,-1.9826434E+000
 7.6500000E+000, 3.8768901E-004, 1.7729556E-004,-1.9845189E+000
 7.7500000E+000, 3.8055858E-004, 1.7774808E-004,-1.9855917E+000
 7.8500000E+000, 3.7258335E-004, 1.7728159E-004,-1.9835715E+000
 7.9500000E+000, 3.6196723E-004, 1.7769456E-004,-1.9878522E+000
 8.0500000E+000, 3.5415061E-004, 1.7813526E-004,-1.9927675E+000
 8.1500000E+000, 3.4651356E-004, 1.7803034E-004,-1.9943069E+000
 8.2500000E+000, 3.4141834E-004, 1.7777128E-004,-1.9929745E+000
 8.3500000E+000, 3.3481908E-004, 1.7713919E-004,-1.9911638E+000
 8.4500000E+000, 3.3286445E-004, 1.7700717E-004,-1.9957291E+000
 8.5000000E+000, 3.2762081E-004, 1.7655161E-004,-1.9947179E+000
 8.6000000E+000, 3.2440995E-004, 1.7619498E-004,-1.9960939E+000
 8.7000000E+000, 3.1995860E-004, 1.7560782E-004,-1.9964031E+000
 8.8000000E+000, 3.1644907E-004, 1.7494350E-004,-1.9949193E+000
 8.9000000E+000, 3.0979213E-004, 1.7511332E-004,-1.9978894E+000
 9.0000000E+000, 3.0222372E-004, 1.7536928E-004,-2.0003566E+000
 9.1000000E+000, 1.6649421E-001, 1.7592117E-004,-2.0050382E+000
 9.2000000E+000, 5.3401189E-001, 1.7533592E-004,-2.0032664E+000
 9.3000000E+000, 9.0858247E-001, 1.7523626E-004,-2.0040691E+000
 9.4000000E+000, 1.2941086E+000, 1.7571790E-004,-2.0065357E+000
 9.5000000E+000, 1.6762254E+000, 1.7639821E-004,-2.0077341E+000
 9.6000000E+000, 1.8468369E+000, 1.7704565E-004,-2.0089352E+000
 9.7000000E+000, 1.8480465E+000, 1.7706801E-004,-2.0087778E+000
 9.8000000E+000, 1.8486629E+000, 1.7662204E-004,-2.0077443E+000
 9.9000000E+000, 1.8484163E+000, 1.7618876E-004,-2.0058434E+000
 1.0000000E+001, 1.8478988E+000, 1.7691818E-004,-2.0108674E+000
 1.0100000E+001, 1.8473323E+000, 1.7703628E-004,-2.0119478E+000
 1.0200000E+001, 1.8469018E+000, 1.7662281E-004,-2.0084088E+000
 1.0300000E+001, 1.8471769E+000, 1.7626342E-004,-2.0075190E+000
 1.0400000E+001, 1.8487149E+000, 1.7629678E-004,-2.0064739E+000
 1.0500000E+001, 1.8498028E+000, 1.7636836E-004,-2.0047960E+000
 1.0600000E+001, 1.8495669E+000, 1.7774643E-004,-2.0127051E+000
 1.0700000E+001, 1.8496033E+000, 1.7796241E-004,-2.0160608E+000
 1.0800000E+001, 1.8493008E+000, 1.7731502E-004,-2.0129433E+000
 1.0900000E+001, 1.8483090E+000, 1.7721523E-004,-2.0131468E+000
 1.1000000E+001, 1.8482718E+000, 1.7730245E-004,-2.0134973E+000
 1.1100000E+001, 1.8497781E+000, 1.7733744E-004,-2.0137252E+000
 1.1200000E+001, 1.8512455E+000, 1.7744804E-004,-2.0141325E+000
 1.1300000E+001, 1.8520526E+000, 1.7727810E-004,-2.0134713E+000
 1.1400000E+001, 1.8520385E+000, 1.7717505E-004,-2.0138038E+000
 1.1500000E+001, 1.8513743E+000, 1.7734333E-004,-2.0140180E+000
 1.1600000E+001, 1.8500389E+000, 1.7699738E-004,-2.0117067E+000
 1.1700000E+001, 1.8488735E+000, 1.7695585E-004,-2.0118989E+000
 1.1800000E+001, 1.8487162E+000, 1.7731134E-004,-2.0139366E+000
 1.1900000E+001, 1.8484783E+000, 1.7723844E-004,-2.0133651E+000
 1.2000000E+001, 1.8483179E+000, 1.7729945E-004,-2.0126581E+000
 1.2100000E+001, 1.8496608E+000, 1.7696420E-004,-2.0109757E+000
 1.2200000E+001, 1.8506472E+000, 1.7705961E-004,-2.0119671E+000
 1.2300000E+001, 1.8503499E+000, 1.7725649E-004,-2.0139323E+000
 1.2400000E+001, 1.8500400E+000, 1.7736867E-004,-2.0146262E+000
 1.2500000E+001, 1.8493859E+000, 1.7716008E-004,-2.0123070E+000
 1.2600000E+001, 1.8483095E+000, 1.7671544E-004,-2.0099450E+000
 1.2700000E+001, 1.8484430E+000, 1.7635272E-004,-2.0084153E+000
 1.2800000E+001, 1.8495139E+000, 1.7600983E-004,-2.0065681E+000
 1.2900000E+001, 1.8511418E+000, 1.7582349E-004,-2.0071584E+000
 1.3000000E+001, 1.8537995E+000, 1.7575606E-004,-2.0079057E+000
 1.3100000E+001, 1.8557202E+000, 1.7568661E-004,-2.0082377E+000
 1.3200000E+001, 1.8559545E+000, 1.7601535E-004,-2.0100472E+000
 1.3300000E+001, 1.8555549E+000, 1.7614953E-004,-2.0108956E+000
 1.3400000E+001, 1.8550322E+000, 1.7583352E-004,-2.0087806E+000
 1.3500000E+001, 1.8531390E+000, 1.7587606E-004,-2.0096276E+000
 1.3600000E+001, 1.8500637E+000, 1.7564153E-004,-2.0080326E+000
 1.3700000E+001, 1.8485318E+000, 1.7559930E-004,-2.0078622E+000
 1.3800000E+001, 1.8479720E+000, 1.7525556E-004,-2.0060079E+000
 1.3900000E+001, 1.8461727E+000, 1.7500052E-004,-2.0039549E+000
 1.4000000E+001, 1.8461901E+000, 1.7492218E-004,-2.0047225E+000
 1.4100000E+001, 1.8481717E+000, 1.7474718E-004,-2.0045435E+000
 1.4200000E+001, 1.8491886E+000, 1.7473467E-004,-2.0057915E+000
 1.4300000E+001, 1.8494466E+000, 1.7493033E-004,-2.0073637E+000
 1.4400000E+001, 1.8504784E+000, 1.7482693E-004,-2.0068337E+000
 1.4500000E+001, 1.8509169E+000, 1.7495388E-004,-2.0082509E+000
 1.4600000E+001, 1.8511577E+000, 1.7490680E-004,-2.0084866E+000
 1.4700000E+001, 1.8511306E+000, 1.7488823E-004,-2.0086138E+000
 1.4800000E+001, 1.8504014E+000, 1.7512022E-004,-2.0093859E+000
 1.4900000E+001, 1.8499589E+000, 1.7550876E-004,-2.0109039E+000
 1.5000000E+001, 1.8492985E+000, 1.7569684E-004,-2.0111133E+000
