s,kW/m2,,
Time,"flux","d43","w"
 0.0000000E+000, 1.9665845E+000, 0.0000000E+000, 0.0000000E+000
 1.0000000E-001, 1.9665899E+000, 0.0000000E+000, 0.0000000E+000
 2.0000000E-001, 1.9665968E+000, 0.0000000E+000, 0.0000000E+000
 3.5000000E-001, 1.9666105E+000, 0.0000000E+000, 0.0000000E+000
 4.5000000E-001, 1.9666311E+000, 0.0000000E+000, 0.0000000E+000
 5.5000000E-001, 1.9666506E+000, 0.0000000E+000, 0.0000000E+000
 6.0000000E-001, 1.9666703E+000, 0.0000000E+000, 0.0000000E+000
 7.0000000E-001, 1.9666835E+000, 0.0000000E+000, 0.0000000E+000
 8.0000000E-001, 1.9667062E+000, 0.0000000E+000, 0.0000000E+000
 9.0000000E-001, 1.9667293E+000, 0.0000000E+000, 0.0000000E+000
 1.0000000E+000, 1.9667524E+000, 0.0000000E+000, 0.0000000E+000
 1.1000000E+000, 1.9667756E+000, 0.0000000E+000, 0.0000000E+000
 1.2000000E+000, 1.9667994E+000, 0.0000000E+000, 0.0000000E+000
 1.3000000E+000, 1.9668237E+000, 0.0000000E+000, 0.0000000E+000
 1.4000000E+000, 1.9668482E+000, 0.0000000E+000, 0.0000000E+000
 1.5000000E+000, 1.9668728E+000, 0.0000000E+000, 0.0000000E+000
 1.6000000E+000, 1.9668972E+000, 0.0000000E+000, 0.0000000E+000
 1.7000000E+000, 1.9669219E+000, 0.0000000E+000, 0.0000000E+000
 1.8000000E+000, 1.9669472E+000, 0.0000000E+000, 0.0000000E+000
 1.9000000E+000, 1.9669727E+000, 0.0000000E+000, 0.0000000E+000
 2.0000000E+000, 1.9669982E+000, 0.0000000E+000, 0.0000000E+000
 2.1000000E+000, 1.9670233E+000, 0.0000000E+000, 0.0000000E+000
 2.2500000E+000, 1.9670538E+000, 0.0000000E+000, 0.0000000E+000
 2.3500000E+000, 1.9670872E+000, 0.0000000E+000, 0.0000000E+000
 2.4500000E+000, 1.9671133E+000, 0.0000000E+000, 0.0000000E+000
 2.5500000E+000, 1.9671394E+000, 0.0000000E+000, 0.0000000E+000
 2.6500000E+000, 1.9671646E+000, 0.0000000E+000, 0.0000000E+000
 2.7500000E+000, 1.9671904E+000, 0.0000000E+000, 0.0000000E+000
 2.8500000E+000, 1.9672166E+000, 0.0000000E+000, 0.0000000E+000
 2.9500000E+000, 1.9672429E+000, 0.0000000E+000, 0.0000000E+000
 3.0500000E+000, 1.9672697E+000, 0.0000000E+000, 0.0000000E+000
 3.1500000E+000, 1.9672956E+000, 0.0000000E+000, 0.0000000E+000
 3.2500000E+000, 1.9673212E+000, 0.0000000E+000, 0.0000000E+000
 3.3500000E+000, 1.9673475E+000, 0.0000000E+000, 0.0000000E+000
 3.4500000E+000, 1.9673740E+000, 0.0000000E+000, 0.0000000E+000
 3.5500000E+000, 1.9674009E+000, 0.0000000E+000, 0.0000000E+000
 3.6500000E+000, 1.9674276E+000, 0.0000000E+000, 0.0000000E+000
 3.7500000E+000, 1.9674531E+000, 0.0000000E+000, 0.0000000E+000
 3.8500000E+000, 1.9674791E+000, 0.0000000E+000, 0.0000000E+000
 3.9500000E+000, 1.9675058E+000, 0.0000000E+000, 0.0000000E+000
 4.0500000E+000, 1.9636420E+000, 0.0000000E+000, 0.0000000E+000
 4.1500000E+000, 1.6064791E+000, 0.0000000E+000, 0.0000000E+000
 4.2500000E+000, 1.1810035E+000, 0.0000000E+000, 0.0000000E+000
 4.3500000E+000, 8.1401956E-001, 0.0000000E+000, 0.0000000E+000
 4.4500000E+000, 3.5765264E-001, 0.0000000E+000, 0.0000000E+000
 4.5500000E+000, 1.4923919E-003, 0.0000000E+000, 0.0000000E+000
 4.6500000E+000, 1.4848253E-003, 2.8129437E-004,-2.8625251E+000
 4.7500000E+000, 1.3873379E-003, 5.1008817E-004,-4.0817356E+000
 4.8500000E+000, 1.2317508E-003, 4.6680261E-004,-2.9805899E+000
 4.9500000E+000, 1.0742393E-003, 4.0055946E-004,-2.1031439E+000
 5.0500000E+000, 9.2457409E-004, 3.9298085E-004,-2.0586901E+000
 5.1500000E+000, 8.9318382E-004, 3.9799300E-004,-1.9182667E+000
 5.2500000E+000, 8.6163837E-004, 4.0234854E-004,-1.9409069E+000
 5.3500000E+000, 8.3396249E-004, 3.9492954E-004,-1.9987348E+000
 5.4500000E+000, 8.1178527E-004, 3.9292627E-004,-2.0877267E+000
 5.5389999E+000, 7.9372573E-004, 3.8654708E-004,-2.2188892E+000
 5.6279998E+000, 7.7763117E-004, 3.8145704E-004,-2.2356725E+000
 5.7169997E+000, 7.6425767E-004, 3.8211507E-004,-2.2518135E+000
 5.8059996E+000, 7.5246031E-004, 3.7971870E-004,-2.2645183E+000
 5.9394995E+000, 7.4122584E-004, 3.7725539E-004,-2.3161578E+000
 6.0284994E+000, 7.3317983E-004, 3.7294208E-004,-2.3588160E+000
 6.1174993E+000, 7.2716699E-004, 3.7543612E-004,-2.3615795E+000
 6.2064992E+000, 7.2089862E-004, 3.8097913E-004,-2.3785994E+000
 6.3399990E+000, 7.1318771E-004, 3.8170412E-004,-2.4222502E+000
 6.4289989E+000, 7.0629363E-004, 3.8096061E-004,-2.4362748E+000
 6.5179988E+000, 7.0208113E-004, 3.8032456E-004,-2.4379880E+000
 6.6069987E+000, 6.9708659E-004, 3.7761431E-004,-2.4375162E+000
 6.7404986E+000, 6.8997259E-004, 3.7719479E-004,-2.4402856E+000
 6.8339485E+000, 6.8433962E-004, 3.7653664E-004,-2.4482000E+000
 6.9318484E+000, 6.8005313E-004, 3.7560605E-004,-2.4505066E+000
 7.0297483E+000, 6.7499201E-004, 3.7500687E-004,-2.4435041E+000
 7.1276482E+000, 6.6937294E-004, 3.7502819E-004,-2.4409810E+000
 7.2255481E+000, 6.6322703E-004, 3.7403979E-004,-2.4430258E+000
 7.3234479E+000, 6.5642364E-004, 3.7312441E-004,-2.4371847E+000
 7.4213478E+000, 6.4960421E-004, 3.7357580E-004,-2.4379580E+000
 7.5192477E+000, 6.4295487E-004, 3.7508146E-004,-2.4374629E+000
 7.6171476E+000, 6.3590850E-004, 3.7520527E-004,-2.4357605E+000
 7.7150475E+000, 6.2863159E-004, 3.7369351E-004,-2.4394264E+000
 7.8139975E+000, 6.2157904E-004, 3.7190745E-004,-2.4376252E+000
 7.9139975E+000, 6.1483466E-004, 3.7150644E-004,-2.4359620E+000
 8.0139975E+000, 6.0793464E-004, 3.7084993E-004,-2.4377073E+000
 8.1139975E+000, 6.0136332E-004, 3.6931122E-004,-2.4436359E+000
 8.2139975E+000, 5.9488537E-004, 3.6834741E-004,-2.4459693E+000
 8.3139975E+000, 5.8778387E-004, 3.6749792E-004,-2.4504548E+000
 8.4139975E+000, 5.8061030E-004, 3.6916882E-004,-2.4557514E+000
 8.5139975E+000, 5.7430530E-004, 3.6893534E-004,-2.4500941E+000
 8.6139975E+000, 5.6838785E-004, 3.6932376E-004,-2.4495221E+000
 8.7139975E+000, 5.6181856E-004, 3.6945675E-004,-2.4461865E+000
 8.8139975E+000, 5.5536150E-004, 3.6854204E-004,-2.4422163E+000
 8.9139975E+000, 5.4963201E-004, 3.6917306E-004,-2.4436969E+000
 9.0139975E+000, 2.9226208E-003, 3.6888737E-004,-2.4448090E+000
 9.1139975E+000, 1.6881551E-001, 3.6694587E-004,-2.4488324E+000
 9.2139975E+000, 5.3116279E-001, 3.6482805E-004,-2.4496057E+000
 9.3139975E+000, 8.8246376E-001, 3.6562893E-004,-2.4478488E+000
 9.4139975E+000, 1.1926482E+000, 3.6473016E-004,-2.4449802E+000
 9.5139975E+000, 1.5367767E+000, 3.6367128E-004,-2.4443627E+000
 9.6139975E+000, 1.7240361E+000, 3.6372477E-004,-2.4427132E+000
 9.7139975E+000, 1.7259096E+000, 3.6372304E-004,-2.4410126E+000
 9.8139975E+000, 1.7279891E+000, 3.6317656E-004,-2.4389366E+000
 9.9139975E+000, 1.7290590E+000, 3.6291544E-004,-2.4392935E+000
 1.0013997E+001, 1.7291698E+000, 3.6327459E-004,-2.4438070E+000
 1.0113997E+001, 1.7293466E+000, 3.6445710E-004,-2.4458304E+000
 1.0213997E+001, 1.7284949E+000, 3.6458859E-004,-2.4436239E+000
 1.0313997E+001, 1.7276773E+000, 3.6569643E-004,-2.4449263E+000
 1.0413997E+001, 1.7279379E+000, 3.6618261E-004,-2.4449259E+000
 1.0513997E+001, 1.7274241E+000, 3.6641672E-004,-2.4423917E+000
 1.0613997E+001, 1.7270604E+000, 3.6615447E-004,-2.4379237E+000
 1.0713997E+001, 1.7282950E+000, 3.6659071E-004,-2.4394682E+000
 1.0813997E+001, 1.7291119E+000, 3.6624794E-004,-2.4378748E+000
 1.0913997E+001, 1.7288583E+000, 3.6639987E-004,-2.4383722E+000
 1.1013997E+001, 1.7293917E+000, 3.6605802E-004,-2.4406237E+000
 1.1113997E+001, 1.7296686E+000, 3.6499549E-004,-2.4451477E+000
 1.1213997E+001, 1.7293290E+000, 3.6380065E-004,-2.4462765E+000
 1.1313997E+001, 1.7295950E+000, 3.6432719E-004,-2.4472318E+000
 1.1413997E+001, 1.7298238E+000, 3.6526171E-004,-2.4458303E+000
 1.1513997E+001, 1.7300024E+000, 3.6494717E-004,-2.4464828E+000
 1.1613997E+001, 1.7305244E+000, 3.6458498E-004,-2.4453697E+000
 1.1713997E+001, 1.7302625E+000, 3.6435298E-004,-2.4478771E+000
 1.1813997E+001, 1.7283773E+000, 3.6462453E-004,-2.4498872E+000
 1.1913997E+001, 1.7264508E+000, 3.6463452E-004,-2.4469327E+000
 1.2013997E+001, 1.7254781E+000, 3.6474104E-004,-2.4443938E+000
 1.2113997E+001, 1.7246331E+000, 3.6509694E-004,-2.4430967E+000
 1.2213997E+001, 1.7227598E+000, 3.6498913E-004,-2.4415843E+000
 1.2313997E+001, 1.7225597E+000, 3.6513316E-004,-2.4396757E+000
 1.2413997E+001, 1.7256335E+000, 3.6538993E-004,-2.4415709E+000
 1.2513997E+001, 1.7277980E+000, 3.6603192E-004,-2.4412500E+000
 1.2613997E+001, 1.7282448E+000, 3.6673372E-004,-2.4406852E+000
 1.2713997E+001, 1.7289717E+000, 3.6704694E-004,-2.4451425E+000
 1.2813997E+001, 1.7287698E+000, 3.6722486E-004,-2.4459206E+000
 1.2913997E+001, 1.7267473E+000, 3.6795062E-004,-2.4470544E+000
 1.3013997E+001, 1.7255902E+000, 3.6745422E-004,-2.4451042E+000
 1.3113997E+001, 1.7259667E+000, 3.6776806E-004,-2.4455617E+000
 1.3213997E+001, 1.7277360E+000, 3.6940896E-004,-2.4491255E+000
 1.3313997E+001, 1.7299433E+000, 3.6930971E-004,-2.4468156E+000
 1.3413997E+001, 1.7309674E+000, 3.6993194E-004,-2.4484363E+000
 1.3513997E+001, 1.7311312E+000, 3.7039465E-004,-2.4482495E+000
 1.3613997E+001, 1.7306592E+000, 3.7054128E-004,-2.4497373E+000
 1.3713997E+001, 1.7297994E+000, 3.7104312E-004,-2.4532694E+000
 1.3813997E+001, 1.7281081E+000, 3.7096141E-004,-2.4534713E+000
 1.3913997E+001, 1.7262468E+000, 3.7054052E-004,-2.4542679E+000
 1.4013997E+001, 1.7255509E+000, 3.7059757E-004,-2.4530856E+000
 1.4113997E+001, 1.7256110E+000, 3.7043090E-004,-2.4539619E+000
 1.4213997E+001, 1.7246261E+000, 3.6985797E-004,-2.4537223E+000
 1.4313997E+001, 1.7240900E+000, 3.6964841E-004,-2.4534624E+000
 1.4413997E+001, 1.7255476E+000, 3.6918979E-004,-2.4536334E+000
 1.4513997E+001, 1.7263612E+000, 3.6862281E-004,-2.4555923E+000
 1.4613997E+001, 1.7257074E+000, 3.6790494E-004,-2.4587431E+000
 1.4713997E+001, 1.7252864E+000, 3.6765983E-004,-2.4600475E+000
 1.4813997E+001, 1.7257240E+000, 3.6792305E-004,-2.4588399E+000
 1.4913997E+001, 1.7254510E+000, 3.6843550E-004,-2.4600041E+000
 1.5000000E+001, 1.7243054E+000, 3.6893459E-004,-2.4607831E+000
