s,s,kW/m2,,
Time,"Device_0001","flux","d43","w"
 0.0000000E+000, 0.0000000E+000,-4.6526453E-011, 0.0000000E+000, 0.0000000E+000
 1.0000000E-001, 7.5000003E-002, 1.8677143E+000, 0.0000000E+000, 0.0000000E+000
 2.0000000E-001, 1.7500000E-001, 1.8668199E+000, 0.0000000E+000, 0.0000000E+000
 3.5000000E-001, 3.0000001E-001, 1.7311002E+000, 0.0000000E+000, 0.0000000E+000
 4.5000000E-001, 4.2500001E-001, 1.4614507E+000, 0.0000000E+000, 0.0000000E+000
 5.5000000E-001, 5.2499998E-001, 1.1070124E+000, 0.0000000E+000, 0.0000000E+000
 6.0000000E-001, 6.0000002E-001, 1.1070169E+000, 0.0000000E+000, 0.0000000E+000
 7.0000000E-001, 6.7500001E-001, 6.7634618E-001, 0.0000000E+000, 0.0000000E+000
 8.0000000E-001, 7.7499998E-001, 5.0620967E-001, 0.0000000E+000, 0.0000000E+000
 9.0000000E-001, 8.7500000E-001, 3.3607194E-001, 0.0000000E+000, 0.0000000E+000
 1.0000000E+000, 9.7500002E-001, 6.2317878E-004, 0.0000000E+000, 0.0000000E+000
 1.1000000E+000, 1.0750000E+000, 6.0974236E-004, 0.0000000E+000, 0.0000000E+000
 1.2000000E+000, 1.1750000E+000, 5.9609610E-004, 0.0000000E+000, 0.0000000E+000
 1.3000000E+000, 1.2750000E+000, 5.4626871E-004, 0.0000000E+000, 0.0000000E+000
 1.4000000E+000, 1.3750000E+000, 4.8366588E-004, 0.0000000E+000, 0.0000000E+000
 1.5000000E+000, 1.4750000E+000, 4.2094706E-004, 0.0000000E+000, 0.0000000E+000
 1.6000000E+000, 1.5750000E+000, 1.2157567E-004, 0.0000000E+000, 0.0000000E+000
 1.7000000E+000, 1.6750000E+000,-8.5077945E-006, 0.0000000E+000, 0.0000000E+000
 1.8000000E+000, 1.7750000E+000,-1.3861409E-004, 0.0000000E+000, 0.0000000E+000
 1.9000000E+000, 1.8750000E+000,-2.0858235E-004, 0.0000000E+000, 0.0000000E+000
 2.0000000E+000, 1.9750000E+000,-2.3583138E-004, 1.4579678E-005,-6.2330389E-001
 2.1000000E+000, 2.0750000E+000,-2.6308090E-004, 8.0098143E-005,-1.3394746E+000
 2.2500000E+000, 2.2000000E+000,-3.0882019E-004, 8.2350052E-005,-1.4981709E+000
 2.3500000E+000, 2.3250000E+000,-3.5677440E-004, 8.8607143E-005,-1.6175698E+000
 2.4500000E+000, 2.4250000E+000,-3.7599957E-004, 9.2324459E-005,-1.6612611E+000
 2.5500000E+000, 2.5250001E+000,-3.9522516E-004, 9.0756061E-005,-1.6826093E+000
 2.6500000E+000, 2.6250000E+000,-4.2027450E-004, 8.6423926E-005,-1.6981432E+000
 2.7438754E+000, 2.7205064E+000,-4.3126158E-004, 8.5460408E-005,-1.7070450E+000
 2.8316263E+000, 2.8096886E+000,-4.4377299E-004, 8.5640211E-005,-1.7154632E+000
 2.9193771E+000, 2.8974395E+000,-4.6695638E-004, 8.6316228E-005,-1.7268004E+000
 3.0071279E+000, 2.9851902E+000,-4.7395375E-004, 8.9266650E-005,-1.7330555E+000
 3.1387542E+000, 3.0948787E+000,-4.8220917E-004, 8.8086890E-005,-1.7449241E+000
 3.2265050E+000, 3.2045672E+000,-4.8475747E-004, 8.7395638E-005,-1.7702885E+000
 3.3142559E+000, 3.2923181E+000,-4.8467348E-004, 8.7173052E-005,-1.7814025E+000
 3.4020067E+000, 3.3800690E+000,-4.8338165E-004, 8.6985696E-005,-1.7859324E+000
 3.5240721E+000, 3.4834461E+000,-4.7835681E-004, 8.5257227E-005,-1.7884750E+000
 3.6022621E+000, 3.5827146E+000,-4.7046682E-004, 8.4509971E-005,-1.7859669E+000
 3.7195470E+000, 3.6804521E+000,-4.5502896E-004, 8.5028929E-005,-1.7856762E+000
 3.8368320E+000, 3.7977371E+000,-4.4116366E-004, 8.4267798E-005,-1.7846022E+000
 3.9150220E+000, 3.8954744E+000,-4.3079659E-004, 8.3696250E-005,-1.7803937E+000
 4.0323070E+000, 3.9932120E+000,-4.2590336E-004, 8.4099636E-005,-1.7715040E+000
 4.1104970E+000, 4.0909495E+000,-4.2016280E-004, 8.5624197E-005,-1.7649078E+000
 4.2277819E+000, 4.1886868E+000,-4.1461285E-004, 8.6083703E-005,-1.7542466E+000
 4.3059719E+000, 4.2864246E+000,-4.1010103E-004, 8.6578621E-005,-1.7435261E+000
 4.4232569E+000, 4.3841619E+000,-4.0628164E-004, 8.6304855E-005,-1.7375818E+000
 4.5014469E+000, 4.4818993E+000,-4.0706591E-004, 8.6643573E-005,-1.7373767E+000
 4.6187318E+000, 4.5796371E+000,-4.0667580E-004, 8.7165186E-005,-1.7408155E+000
 4.7360168E+000, 4.6969218E+000,-4.0552058E-004, 8.7514898E-005,-1.7431183E+000
 4.8220258E+000, 4.8005238E+000,-4.0419330E-004, 8.7921137E-005,-1.7435344E+000
 4.9080348E+000, 4.8865323E+000,-4.0335485E-004, 8.8905508E-005,-1.7445189E+000
 5.0370482E+000, 4.9940438E+000,-4.0089487E-004, 8.8920715E-005,-1.7453024E+000
 5.1230572E+000, 5.1015549E+000,-3.9670305E-004, 8.8791312E-005,-1.7459201E+000
 5.2090662E+000, 5.1875639E+000,-3.9520042E-004, 8.8887602E-005,-1.7473162E+000
 5.3380797E+000, 5.2950754E+000,-3.9259525E-004, 8.8718305E-005,-1.7482986E+000
 5.4240887E+000, 5.4025865E+000,-3.9042393E-004, 8.8793713E-005,-1.7492077E+000
 5.5100976E+000, 5.4885955E+000,-3.8566793E-004, 8.8344976E-005,-1.7479618E+000
 5.6391111E+000, 5.5961065E+000,-3.8305568E-004, 8.7850240E-005,-1.7450668E+000
 5.7251201E+000, 5.7036180E+000,-3.8089356E-004, 8.8101864E-005,-1.7419388E+000
 5.8111291E+000, 5.7896266E+000,-3.8005525E-004, 8.7869135E-005,-1.7401474E+000
 5.9401425E+000, 5.8971381E+000,-3.7869686E-004, 8.7502340E-005,-1.7384055E+000
 6.0218446E+000, 6.0014758E+000,-3.7519867E-004, 8.7982044E-005,-1.7377399E+000
 6.1379375E+000, 6.0992398E+000,-3.7414324E-004, 8.7484870E-005,-1.7356985E+000
 6.2153327E+000, 6.1959839E+000,-3.7388879E-004, 8.7970060E-005,-1.7342100E+000
 6.3314256E+000, 6.2927279E+000,-3.7414706E-004, 8.8399524E-005,-1.7322571E+000
 6.4088208E+000, 6.3894720E+000,-3.7411691E-004, 8.8573965E-005,-1.7304573E+000
 6.5249137E+000, 6.4862161E+000,-3.7459275E-004, 8.8923989E-005,-1.7284054E+000
 6.6023089E+000, 6.5829601E+000,-3.7624725E-004, 8.9635490E-005,-1.7275168E+000
 6.7184018E+000, 6.6797042E+000,-3.7778544E-004, 8.9366200E-005,-1.7272371E+000
 6.8344946E+000, 6.7957969E+000,-3.7927521E-004, 8.9453490E-005,-1.7284224E+000
 6.9118898E+000, 6.8925409E+000,-3.8090418E-004, 8.9322391E-005,-1.7298629E+000
 7.0279827E+000, 6.9892850E+000,-3.8324425E-004, 8.8957779E-005,-1.7306973E+000
 7.1053779E+000, 7.0860291E+000,-3.8540462E-004, 8.8409965E-005,-1.7306067E+000
 7.2214708E+000, 7.1827731E+000,-3.8859496E-004, 8.8076056E-005,-1.7297491E+000
 7.3375636E+000, 7.2988658E+000,-3.9060522E-004, 8.7860732E-005,-1.7286626E+000
 7.4149589E+000, 7.3956099E+000,-3.9257313E-004, 8.7794906E-005,-1.7283893E+000
 7.5310517E+000, 7.4923539E+000,-3.9347721E-004, 8.7659559E-005,-1.7283911E+000
 7.6084469E+000, 7.5890980E+000,-3.9421406E-004, 8.8016910E-005,-1.7304574E+000
 7.7245398E+000, 7.6858420E+000,-3.9438991E-004, 8.7943859E-005,-1.7313557E+000
 7.8019350E+000, 7.7825861E+000,-3.9417218E-004, 8.7846012E-005,-1.7309408E+000
 7.9180279E+000, 7.8793302E+000,-3.9584906E-004, 8.7801542E-005,-1.7289833E+000
 8.0341207E+000, 7.9954233E+000,-3.9610494E-004, 8.7910688E-005,-1.7253244E+000
 8.1115160E+000, 8.0921669E+000,-3.9609915E-004, 8.7979162E-005,-1.7233741E+000
 8.2276088E+000, 8.1889114E+000,-3.9680043E-004, 8.8196502E-005,-1.7234371E+000
 8.3050041E+000, 8.2856550E+000,-3.9876858E-004, 8.8262845E-005,-1.7251016E+000
 8.4210969E+000, 8.3823996E+000,-4.0104767E-004, 8.8395507E-005,-1.7271707E+000
 8.5371898E+000, 8.4984922E+000,-4.0292274E-004, 8.8448629E-005,-1.7284942E+000
 8.6145850E+000, 8.5952358E+000,-4.0406367E-004, 8.8450179E-005,-1.7282382E+000
 8.7306778E+000, 8.6919804E+000,-4.0640851E-004, 8.8353772E-005,-1.7273997E+000
 8.8158126E+000, 8.7945290E+000,-4.0957730E-004, 8.8498447E-005,-1.7263823E+000
 8.9009474E+000, 8.8796635E+000,-4.1004186E-004, 8.8322013E-005,-1.7244582E+000
 9.0286495E+000, 8.9860821E+000, 3.5542622E-003, 8.8707588E-005,-1.7229584E+000
 9.1079918E+000, 9.0882616E+000, 1.1483797E-002, 8.8578461E-005,-1.7228714E+000
 9.2183167E+000, 9.1815414E+000, 2.8623775E-001, 8.8581342E-005,-1.7233856E+000
 9.3286416E+000, 9.2918663E+000, 6.2528664E-001, 8.9089612E-005,-1.7243775E+000
 9.4021915E+000, 9.3838043E+000, 9.2314982E-001, 8.9117435E-005,-1.7242694E+000
 9.5198714E+000, 9.4806833E+000, 1.1639374E+000, 8.8945351E-005,-1.7237085E+000
 9.6007763E+000, 9.5805502E+000, 1.4062570E+000, 8.8627101E-005,-1.7242192E+000
 9.7221336E+000, 9.6816816E+000, 1.5401750E+000, 8.8543420E-005,-1.7258362E+000
 9.8030386E+000, 9.7828121E+000, 1.5422703E+000, 8.8405046E-005,-1.7263776E+000
 9.9243959E+000, 9.8839436E+000, 1.5449095E+000, 8.8216017E-005,-1.7265036E+000
 1.0005301E+001, 9.9850750E+000, 1.5470568E+000, 8.8082990E-005,-1.7259854E+000
 1.0126658E+001, 1.0086205E+001, 1.5507483E+000, 8.8003770E-005,-1.7252712E+000
 1.0207563E+001, 1.0187337E+001, 1.5547091E+000, 8.8173270E-005,-1.7250779E+000
 1.0328920E+001, 1.0288468E+001, 1.5564547E+000, 8.8166824E-005,-1.7233943E+000
 1.0409825E+001, 1.0389599E+001, 1.5557162E+000, 8.8235975E-005,-1.7217834E+000
 1.0543318E+001, 1.0498820E+001, 1.5545591E+000, 8.8370180E-005,-1.7214885E+000
 1.0632314E+001, 1.0610065E+001, 1.5552596E+000, 8.8458968E-005,-1.7217157E+000
 1.0721309E+001, 1.0699060E+001, 1.5547283E+000, 8.8442626E-005,-1.7217795E+000
 1.0810305E+001, 1.0788055E+001, 1.5541970E+000, 8.8634653E-005,-1.7218657E+000
 1.0943798E+001, 1.0899300E+001, 1.5509434E+000, 8.8742629E-005,-1.7222196E+000
 1.1032793E+001, 1.1010545E+001, 1.5520331E+000, 8.8583649E-005,-1.7232434E+000
 1.1121789E+001, 1.1099540E+001, 1.5542470E+000, 8.8472225E-005,-1.7238470E+000
 1.1210784E+001, 1.1188535E+001, 1.5564611E+000, 8.8615532E-005,-1.7242359E+000
 1.1344277E+001, 1.1299779E+001, 1.5562110E+000, 8.8565801E-005,-1.7232651E+000
 1.1433272E+001, 1.1411023E+001, 1.5570134E+000, 8.8497552E-005,-1.7218752E+000
 1.1522268E+001, 1.1500019E+001, 1.5591725E+000, 8.8408691E-005,-1.7210685E+000
 1.1611263E+001, 1.1589014E+001, 1.5613319E+000, 8.8318440E-005,-1.7199891E+000
 1.1700259E+001, 1.1678010E+001, 1.5619277E+000, 8.8336987E-005,-1.7192783E+000
 1.1833752E+001, 1.1789254E+001, 1.5595989E+000, 8.8797591E-005,-1.7189018E+000
 1.1905402E+001, 1.1887489E+001, 1.5589281E+000, 8.8623965E-005,-1.7179226E+000
 1.2012878E+001, 1.1977053E+001, 1.5610578E+000, 8.8625246E-005,-1.7173319E+000
 1.2120354E+001, 1.2084529E+001, 1.5633423E+000, 8.8534165E-005,-1.7169187E+000
 1.2238577E+001, 1.2199169E+001, 1.5605685E+000, 8.8349465E-005,-1.7169788E+000
 1.2317393E+001, 1.2297688E+001, 1.5589617E+000, 8.8162698E-005,-1.7181848E+000
 1.2435616E+001, 1.2396209E+001, 1.5541911E+000, 8.7915883E-005,-1.7195753E+000
 1.2514432E+001, 1.2494728E+001, 1.5518236E+000, 8.7665212E-005,-1.7196403E+000
 1.2632655E+001, 1.2593247E+001, 1.5487984E+000, 8.7532142E-005,-1.7186191E+000
 1.2711471E+001, 1.2691767E+001, 1.5482585E+000, 8.7744280E-005,-1.7173978E+000
 1.2829694E+001, 1.2790286E+001, 1.5502940E+000, 8.7912304E-005,-1.7163718E+000
 1.2908510E+001, 1.2888805E+001, 1.5524199E+000, 8.8033325E-005,-1.7155846E+000
 1.3026733E+001, 1.2987326E+001, 1.5528939E+000, 8.8118693E-005,-1.7151469E+000
 1.3105549E+001, 1.3085845E+001, 1.5525780E+000, 8.7842054E-005,-1.7148863E+000
 1.3223772E+001, 1.3184364E+001, 1.5498457E+000, 8.7853179E-005,-1.7144544E+000
 1.3302588E+001, 1.3282884E+001, 1.5454155E+000, 8.7756147E-005,-1.7132505E+000
 1.3432633E+001, 1.3389285E+001, 1.5422589E+000, 8.7720538E-005,-1.7121929E+000
 1.3519330E+001, 1.3497656E+001, 1.5420732E+000, 8.8086461E-005,-1.7115048E+000
 1.3606028E+001, 1.3584353E+001, 1.5463922E+000, 8.8036883E-005,-1.7104487E+000
 1.3736073E+001, 1.3692724E+001, 1.5454882E+000, 8.7891618E-005,-1.7098656E+000
 1.3822770E+001, 1.3801096E+001, 1.5447880E+000, 8.7885579E-005,-1.7099655E+000
 1.3909468E+001, 1.3887794E+001, 1.5445448E+000, 8.8186724E-005,-1.7103121E+000
 1.4039513E+001, 1.3996164E+001, 1.5504068E+000, 8.8129804E-005,-1.7101580E+000
 1.4126210E+001, 1.4104536E+001, 1.5485287E+000, 8.8220266E-005,-1.7100619E+000
 1.4212907E+001, 1.4191234E+001, 1.5467991E+000, 8.8284432E-005,-1.7097981E+000
 1.4342953E+001, 1.4299604E+001, 1.5445913E+000, 8.8297544E-005,-1.7094319E+000
 1.4429650E+001, 1.4407976E+001, 1.5436457E+000, 8.8111767E-005,-1.7094523E+000
 1.4516347E+001, 1.4494673E+001, 1.5409236E+000, 8.8019631E-005,-1.7094635E+000
 1.4603045E+001, 1.4581370E+001, 1.5382690E+000, 8.7901855E-005,-1.7099712E+000
 1.4733090E+001, 1.4689742E+001, 1.5356122E+000, 8.7757915E-005,-1.7100053E+000
 1.4819787E+001, 1.4798113E+001, 1.5356179E+000, 8.7596723E-005,-1.7089971E+000
 1.4906485E+001, 1.4884810E+001, 1.5368611E+000, 8.7503344E-005,-1.7073238E+000
 1.5036530E+001, 1.4993182E+001, 1.5386672E+000, 8.7915381E-005,-1.7064186E+000
