s,s,kW/m2,,
Time,"Device_0001","flux","d43","w"
 0.0000000E+000, 0.0000000E+000,-4.6526453E-011, 0.0000000E+000, 0.0000000E+000
 1.0000000E-001, 7.5000003E-002, 1.8686818E+000, 0.0000000E+000, 0.0000000E+000
 2.0000000E-001, 1.7500000E-001, 1.8677869E+000, 0.0000000E+000, 0.0000000E+000
 3.5000000E-001, 3.0000001E-001, 1.7319967E+000, 0.0000000E+000, 0.0000000E+000
 4.5000000E-001, 4.2500001E-001, 1.4622074E+000, 0.0000000E+000, 0.0000000E+000
 5.5000000E-001, 5.2499998E-001, 1.1075894E+000, 0.0000000E+000, 0.0000000E+000
 6.0000000E-001, 6.0000002E-001, 1.1075939E+000, 0.0000000E+000, 0.0000000E+000
 7.0000000E-001, 6.7500001E-001, 6.7672652E-001, 0.0000000E+000, 0.0000000E+000
 8.0000000E-001, 7.7499998E-001, 5.0650460E-001, 0.0000000E+000, 0.0000000E+000
 9.0000000E-001, 8.7500000E-001, 3.3628139E-001, 0.0000000E+000, 0.0000000E+000
 1.0334707E+000, 9.8898047E-001, 6.7214924E-004, 0.0000000E+000, 0.0000000E+000
 1.1049708E+000, 1.0870957E+000, 6.4763631E-004, 0.0000000E+000, 0.0000000E+000
 1.2122208E+000, 1.1764708E+000, 6.2344765E-004, 0.0000000E+000, 0.0000000E+000
 1.3085790E+000, 1.2765622E+000, 5.2722997E-004, 0.0000000E+000, 0.0000000E+000
 1.4263855E+000, 1.3822451E+000, 2.6588948E-004, 0.0000000E+000, 0.0000000E+000
 1.5070687E+000, 1.4801743E+000,-5.1088427E-005, 0.0000000E+000, 0.0000000E+000
 1.6033166E+000, 1.5672237E+000,-9.5507014E-005, 0.0000000E+000, 0.0000000E+000
 1.7236265E+000, 1.6755025E+000,-1.3168652E-004, 0.0000000E+000, 0.0000000E+000
 1.8198744E+000, 1.7837814E+000,-1.6116165E-004, 0.0000000E+000, 0.0000000E+000
 1.9161223E+000, 1.8800293E+000,-1.7377114E-004, 0.0000000E+000, 0.0000000E+000
 2.0015800E+000, 1.9695334E+000,-1.8130697E-004, 4.9671642E-005,-8.0571669E-001
 2.1084021E+000, 2.0656734E+000,-1.8791154E-004, 1.6604282E-004,-3.1363282E+000
 2.2152242E+000, 2.1724954E+000,-1.8445663E-004, 1.5836896E-004,-3.1175795E+000
 2.3006819E+000, 2.2686353E+000,-1.7848769E-004, 1.5885655E-004,-3.1316540E+000
 2.4075040E+000, 2.3647752E+000,-1.7268307E-004, 1.5887876E-004,-3.1329136E+000
 2.5143261E+000, 2.4715972E+000,-1.6717690E-004, 1.5987537E-004,-3.1836760E+000
 2.6211483E+000, 2.5784194E+000,-1.6462945E-004, 1.6139053E-004,-3.2240551E+000
 2.7066059E+000, 2.6745594E+000,-1.6162659E-004, 1.5980465E-004,-3.2101231E+000
 2.8134280E+000, 2.7706993E+000,-1.5810994E-004, 1.6081816E-004,-3.1874623E+000
 2.9202502E+000, 2.8775213E+000,-1.5697554E-004, 1.5919111E-004,-3.1714926E+000
 3.0145116E+000, 2.9768071E+000,-1.5578989E-004, 1.5749232E-004,-3.1766980E+000
 3.1087730E+000, 3.0710685E+000,-1.5482250E-004, 1.5653581E-004,-3.1570823E+000
 3.2030344E+000, 3.1653299E+000,-1.5548461E-004, 1.5746670E-004,-3.1544051E+000
 3.3048367E+000, 3.2641299E+000,-1.5967988E-004, 1.5813968E-004,-3.1615191E+000
 3.4012424E+000, 3.3627169E+000,-1.6212335E-004, 1.6001800E-004,-3.1602027E+000
 3.5111038E+000, 3.4653282E+000,-1.6487099E-004, 1.6076068E-004,-3.1620672E+000
 3.6026549E+000, 3.5660343E+000,-1.6145658E-004, 1.6000046E-004,-3.1778505E+000
 3.7125162E+000, 3.6667407E+000,-1.5976295E-004, 1.5887676E-004,-3.1680365E+000
 3.8094382E+000, 3.7690539E+000,-1.5779570E-004, 1.5876658E-004,-3.1653152E+000
 3.9128218E+000, 3.8697622E+000,-1.5681311E-004, 1.5887225E-004,-3.1726778E+000
 4.0016670E+000, 3.9661288E+000,-1.5637500E-004, 1.5832866E-004,-3.1699994E+000
 4.1082812E+000, 4.0638585E+000,-1.5788581E-004, 1.5930037E-004,-3.1708615E+000
 4.2148955E+000, 4.1704731E+000,-1.5793342E-004, 1.5986830E-004,-3.1684000E+000
 4.3037407E+000, 4.2682028E+000,-1.5801581E-004, 1.6001286E-004,-3.1743774E+000
 4.4139088E+000, 4.3680243E+000,-1.5813090E-004, 1.6074517E-004,-3.1701050E+000
 4.5116385E+000, 4.4725466E+000,-1.5854520E-004, 1.6082208E-004,-3.1685767E+000
 4.6093683E+000, 4.5702763E+000,-1.5859141E-004, 1.5984487E-004,-3.1716788E+000
 4.7070980E+000, 4.6680059E+000,-1.6147464E-004, 1.5988261E-004,-3.1756396E+000
 4.8048277E+000, 4.7657356E+000,-1.6235106E-004, 1.6031432E-004,-3.1789925E+000
 4.9025575E+000, 4.8634658E+000,-1.6302761E-004, 1.5969075E-004,-3.1648495E+000
 5.0002872E+000, 4.9611955E+000,-1.6378926E-004, 1.5929583E-004,-3.1521611E+000
 5.1175629E+000, 5.0686979E+000,-1.6378582E-004, 1.5892672E-004,-3.1461329E+000
 5.2152926E+000, 5.1762009E+000,-1.6391465E-004, 1.5867787E-004,-3.1404643E+000
 5.3130224E+000, 5.2739305E+000,-1.6379192E-004, 1.5869708E-004,-3.1339555E+000
 5.4044291E+000, 5.3678956E+000,-1.6787609E-004, 1.5866366E-004,-3.1299174E+000
 5.5177779E+000, 5.4705606E+000,-1.7179824E-004, 1.5862237E-004,-3.1284027E+000
 5.6136884E+000, 5.5753241E+000,-1.7457642E-004, 1.5902608E-004,-3.1286006E+000
 5.7095989E+000, 5.6712346E+000,-1.7574336E-004, 1.5969662E-004,-3.1298964E+000
 5.8171471E+000, 5.7723675E+000,-1.7614129E-004, 1.5996593E-004,-3.1285214E+000
 5.9099548E+000, 5.8728318E+000,-1.7677752E-004, 1.6021308E-004,-3.1283000E+000
 6.0027626E+000, 5.9656396E+000,-1.7658291E-004, 1.6040789E-004,-3.1298180E+000
 6.1141319E+000, 6.0677280E+000,-1.7734306E-004, 1.6061065E-004,-3.1290693E+000
 6.2106520E+000, 6.1720653E+000,-1.7692249E-004, 1.6044233E-004,-3.1280894E+000
 6.3127406E+000, 6.2719049E+000,-1.7854123E-004, 1.6105977E-004,-3.1269548E+000
 6.4148291E+000, 6.3739939E+000,-1.7883656E-004, 1.6082313E-004,-3.1219456E+000
 6.5169177E+000, 6.4760823E+000,-1.8109818E-004, 1.6110882E-004,-3.1249566E+000
 6.6190062E+000, 6.5781708E+000,-1.8219696E-004, 1.6111875E-004,-3.1259000E+000
 6.7006771E+000, 6.6700506E+000,-1.8525381E-004, 1.6152156E-004,-3.1237640E+000
 6.8027656E+000, 6.7619300E+000,-1.8667283E-004, 1.6185855E-004,-3.1240394E+000
 6.9048542E+000, 6.8640189E+000,-1.8839899E-004, 1.6162536E-004,-3.1227798E+000
 7.0069427E+000, 6.9661074E+000,-1.8893954E-004, 1.6155044E-004,-3.1189420E+000
 7.1090313E+000, 7.0681958E+000,-1.8751950E-004, 1.6225931E-004,-3.1194611E+000
 7.2111198E+000, 7.1702843E+000,-1.8561076E-004, 1.6265064E-004,-3.1199083E+000
 7.3132084E+000, 7.2723727E+000,-1.8494700E-004, 1.6300671E-004,-3.1167312E+000
 7.4152969E+000, 7.3744617E+000,-1.8529377E-004, 1.6270993E-004,-3.1150827E+000
 7.5108915E+000, 7.4726830E+000,-1.8537995E-004, 1.6247736E-004,-3.1107595E+000
 7.6021567E+000, 7.5656505E+000,-1.8656338E-004, 1.6213747E-004,-3.0990629E+000
 7.7189762E+000, 7.6703205E+000,-1.9112365E-004, 1.6183403E-004,-3.0912859E+000
 7.8193679E+000, 7.7792110E+000,-1.9627367E-004, 1.6157459E-004,-3.0913355E+000
 7.9197596E+000, 7.8796029E+000,-2.0108739E-004, 1.6179743E-004,-3.0896282E+000
 8.0000730E+000, 7.9699554E+000,-2.0283580E-004, 1.6170686E-004,-3.0852661E+000
 8.1004648E+000, 8.0603085E+000,-2.0404636E-004, 1.6163761E-004,-3.0837882E+000
 8.2008565E+000, 8.1606998E+000,-2.0435033E-004, 1.6140168E-004,-3.0817158E+000
 8.3012482E+000, 8.2610912E+000,-2.0238647E-004, 1.6135992E-004,-3.0816767E+000
 8.4016400E+000, 8.3614836E+000,-2.0161828E-004, 1.6141613E-004,-3.0799534E+000
 8.5020317E+000, 8.4618750E+000,-1.9879993E-004, 1.6106604E-004,-3.0711498E+000
 8.6024234E+000, 8.5622663E+000,-1.9858967E-004, 1.6093296E-004,-3.0705173E+000
 8.7028152E+000, 8.6626587E+000,-2.0133721E-004, 1.6106856E-004,-3.0715714E+000
 8.8032069E+000, 8.7630501E+000,-2.0262848E-004, 1.6125968E-004,-3.0676825E+000
 8.9035986E+000, 8.8634424E+000,-2.0388368E-004, 1.6104680E-004,-3.0612714E+000
 9.0039904E+000, 8.9638338E+000,-6.5805907E-005, 1.6163036E-004,-3.0597382E+000
 9.1144213E+000, 9.0702486E+000, 8.0028072E-002, 1.6177454E-004,-3.0597615E+000
 9.2027660E+000, 9.1696367E+000, 4.9391189E-001, 1.6156449E-004,-3.0594890E+000
 9.3193590E+000, 9.2707787E+000, 1.0001059E+000, 1.6162122E-004,-3.0597057E+000
 9.4165198E+000, 9.3776550E+000, 1.5238744E+000, 1.6160391E-004,-3.0585101E+000
 9.5195102E+000, 9.4783363E+000, 1.6270795E+000, 1.6141489E-004,-3.0573611E+000
 9.6050117E+000, 9.5729485E+000, 1.6299168E+000, 1.6143927E-004,-3.0576928E+000
 9.7073296E+000, 9.6664333E+000, 1.6257724E+000, 1.6141012E-004,-3.0574613E+000
 9.8028090E+000, 9.7646170E+000, 1.6205266E+000, 1.6146786E-004,-3.0583487E+000
 9.9173843E+000, 9.8696442E+000, 1.6205770E+000, 1.6158892E-004,-3.0576050E+000
 1.0020502E+001, 9.9792690E+000, 1.6211994E+000, 1.6169569E-004,-3.0559816E+000
 1.0104524E+001, 1.0073016E+001, 1.6223316E+000, 1.6173792E-004,-3.0554893E+000
 1.0209551E+001, 1.0167541E+001, 1.6212623E+000, 1.6179329E-004,-3.0553234E+000
 1.0314579E+001, 1.0272568E+001, 1.6257502E+000, 1.6181593E-004,-3.0576878E+000
 1.0412607E+001, 1.0373428E+001, 1.6284837E+000, 1.6168214E-004,-3.0567787E+000
 1.0505969E+001, 1.0468624E+001, 1.6311781E+000, 1.6168777E-004,-3.0523949E+000
 1.0618003E+001, 1.0571322E+001, 1.6258802E+000, 1.6215247E-004,-3.0513825E+000
 1.0718834E+001, 1.0678515E+001, 1.6220481E+000, 1.6202439E-004,-3.0476761E+000
 1.0800993E+001, 1.0770184E+001, 1.6229473E+000, 1.6190227E-004,-3.0451131E+000
 1.0903691E+001, 1.0862612E+001, 1.6225116E+000, 1.6190806E-004,-3.0454659E+000
 1.1006389E+001, 1.0965310E+001, 1.6249536E+000, 1.6202482E-004,-3.0462997E+000
 1.1109088E+001, 1.1068008E+001, 1.6225973E+000, 1.6213089E-004,-3.0473640E+000
 1.1211786E+001, 1.1170707E+001, 1.6229842E+000, 1.6217066E-004,-3.0480545E+000
 1.1314484E+001, 1.1273405E+001, 1.6204799E+000, 1.6226388E-004,-3.0479405E+000
 1.1409952E+001, 1.1371801E+001, 1.6203448E+000, 1.6231132E-004,-3.0460937E+000
 1.1500600E+001, 1.1464341E+001, 1.6161742E+000, 1.6233786E-004,-3.0471609E+000
 1.1609378E+001, 1.1564054E+001, 1.6137844E+000, 1.6248359E-004,-3.0501347E+000
 1.1700026E+001, 1.1663767E+001, 1.6126604E+000, 1.6241528E-004,-3.0500650E+000
 1.1808804E+001, 1.1763479E+001, 1.6205637E+000, 1.6254935E-004,-3.0485013E+000
 1.1917581E+001, 1.1872257E+001, 1.6227815E+000, 1.6227474E-004,-3.0482302E+000
 1.2008229E+001, 1.1971970E+001, 1.6203823E+000, 1.6213312E-004,-3.0480304E+000
 1.2117007E+001, 1.2071683E+001, 1.6131797E+000, 1.6210538E-004,-3.0460055E+000
 1.2207655E+001, 1.2171395E+001, 1.6149559E+000, 1.6207263E-004,-3.0457680E+000
 1.2316432E+001, 1.2271109E+001, 1.6151316E+000, 1.6197677E-004,-3.0439653E+000
 1.2414332E+001, 1.2375186E+001, 1.6108263E+000, 1.6209409E-004,-3.0424635E+000
 1.2514045E+001, 1.2474160E+001, 1.6058440E+000, 1.6199125E-004,-3.0407219E+000
 1.2610523E+001, 1.2571975E+001, 1.5983270E+000, 1.6189319E-004,-3.0382192E+000
 1.2710768E+001, 1.2668999E+001, 1.5991404E+000, 1.6176586E-004,-3.0354519E+000
 1.2806335E+001, 1.2768129E+001, 1.6033360E+000, 1.6183824E-004,-3.0352156E+000
 1.2900219E+001, 1.2862702E+001, 1.6076869E+000, 1.6175599E-004,-3.0323002E+000
 1.3007125E+001, 1.2962581E+001, 1.6131490E+000, 1.6162955E-004,-3.0302229E+000
 1.3105121E+001, 1.3065923E+001, 1.6137271E+000, 1.6169369E-004,-3.0303342E+000
 1.3203118E+001, 1.3163919E+001, 1.6168395E+000, 1.6164116E-004,-3.0287271E+000
 1.3301115E+001, 1.3261916E+001, 1.6125000E+000, 1.6195605E-004,-3.0280607E+000
 1.3418711E+001, 1.3369713E+001, 1.6093153E+000, 1.6213878E-004,-3.0251977E+000
 1.3516707E+001, 1.3477509E+001, 1.6079688E+000, 1.6215094E-004,-3.0232096E+000
 1.3614704E+001, 1.3575505E+001, 1.6131375E+000, 1.6236243E-004,-3.0234406E+000
 1.3712701E+001, 1.3673502E+001, 1.6169251E+000, 1.6231847E-004,-3.0230224E+000
 1.3805624E+001, 1.3768497E+001, 1.6182781E+000, 1.6251740E-004,-3.0226967E+000
 1.3907999E+001, 1.3865342E+001, 1.6208482E+000, 1.6265520E-004,-3.0212641E+000
 1.4017199E+001, 1.3971717E+001, 1.6222616E+000, 1.6280088E-004,-3.0225375E+000
 1.4111042E+001, 1.4073504E+001, 1.6196190E+000, 1.6316376E-004,-3.0229185E+000
 1.4204886E+001, 1.4167349E+001, 1.6153569E+000, 1.6315885E-004,-3.0238204E+000
 1.4302484E+001, 1.4263466E+001, 1.6159714E+000, 1.6313499E-004,-3.0252397E+000
 1.4405712E+001, 1.4364421E+001, 1.6177511E+000, 1.6307377E-004,-3.0257165E+000
 1.4508940E+001, 1.4467649E+001, 1.6198399E+000, 1.6290361E-004,-3.0251267E+000
 1.4612168E+001, 1.4570877E+001, 1.6197069E+000, 1.6309741E-004,-3.0258098E+000
 1.4715396E+001, 1.4674105E+001, 1.6190453E+000, 1.6299859E-004,-3.0257406E+000
 1.4818624E+001, 1.4777333E+001, 1.6184617E+000, 1.6291642E-004,-3.0228648E+000
 1.4901207E+001, 1.4870238E+001, 1.6204809E+000, 1.6300549E-004,-3.0218337E+000
 1.5004435E+001, 1.4963143E+001, 1.6223553E+000, 1.6313001E-004,-3.0221109E+000
