s,s,kW/m2,,
Time,"Device_0001","flux","d43","w"
 0.0000000E+000, 0.0000000E+000,-4.6526453E-011, 0.0000000E+000, 0.0000000E+000
 1.0000000E-001, 7.5000003E-002, 1.8677143E+000, 0.0000000E+000, 0.0000000E+000
 2.0000000E-001, 1.7500000E-001, 1.8668199E+000, 0.0000000E+000, 0.0000000E+000
 3.5000000E-001, 3.0000001E-001, 1.7311002E+000, 0.0000000E+000, 0.0000000E+000
 4.5000000E-001, 4.2500001E-001, 1.4614507E+000, 0.0000000E+000, 0.0000000E+000
 5.5000000E-001, 5.2499998E-001, 1.1070124E+000, 0.0000000E+000, 0.0000000E+000
 6.0000000E-001, 6.0000002E-001, 1.1070169E+000, 0.0000000E+000, 0.0000000E+000
 7.0000000E-001, 6.7500001E-001, 6.7631787E-001, 0.0000000E+000, 0.0000000E+000
 8.0000000E-001, 7.7499998E-001, 5.0612903E-001, 0.0000000E+000, 0.0000000E+000
 9.0000000E-001, 8.7500000E-001, 3.3593896E-001, 0.0000000E+000, 0.0000000E+000
 1.0000000E+000, 9.7500002E-001, 4.1169845E-004, 0.0000000E+000, 0.0000000E+000
 1.1000000E+000, 1.0750000E+000, 4.0742202E-004, 0.0000000E+000, 0.0000000E+000
 1.2000000E+000, 1.1750000E+000, 4.0293581E-004, 0.0000000E+000, 0.0000000E+000
 1.3000000E+000, 1.2750000E+000, 3.7823574E-004, 0.0000000E+000, 0.0000000E+000
 1.4000000E+000, 1.3750000E+000, 3.4397017E-004, 0.0000000E+000, 0.0000000E+000
 1.5000000E+000, 1.4750000E+000, 3.0958888E-004, 0.0000000E+000, 0.0000000E+000
 1.6000000E+000, 1.5750000E+000, 1.4616815E-004, 0.0000000E+000, 0.0000000E+000
 1.7000000E+000, 1.6750000E+000, 7.6182369E-005, 0.0000000E+000, 0.0000000E+000
 1.8000000E+000, 1.7750000E+000, 6.1743190E-006, 0.0000000E+000, 0.0000000E+000
 1.9000000E+000, 1.8750000E+000,-3.3180961E-005, 0.0000000E+000, 0.0000000E+000
 2.0000000E+000, 1.9750000E+000,-4.9635251E-005, 8.9503032E-005,-3.9807981E-001
 2.1000000E+000, 2.0750000E+000,-6.6089815E-005, 1.7265664E-004,-7.9751980E-001
 2.2500000E+000, 2.2000000E+000,-9.2180417E-005, 1.5755008E-004,-8.3409464E-001
 2.3500000E+000, 2.3250000E+000,-1.1633407E-004, 1.4482209E-004,-8.6752671E-001
 2.4500000E+000, 2.4250000E+000,-1.2839642E-004, 1.4139448E-004,-8.7893981E-001
 2.5500000E+000, 2.5250001E+000,-1.4045904E-004, 1.3649021E-004,-9.0253693E-001
 2.6500000E+000, 2.6250000E+000,-1.5934560E-004, 1.2790074E-004,-9.4869059E-001
 2.7500000E+000, 2.7249999E+000,-1.6681790E-004, 1.2007105E-004,-1.0110476E+000
 2.8500000E+000, 2.8250000E+000,-1.7429049E-004, 1.1660232E-004,-1.0780860E+000
 2.9500000E+000, 2.9250000E+000,-1.8838422E-004, 1.1466711E-004,-1.1462953E+000
 3.0500000E+000, 3.0250001E+000,-1.9474709E-004, 1.1153121E-004,-1.1967484E+000
 3.1500000E+000, 3.1250000E+000,-2.0111028E-004, 1.1033360E-004,-1.2321924E+000
 3.2500000E+000, 3.2249999E+000,-2.0877342E-004, 1.0988461E-004,-1.2735939E+000
 3.3500000E+000, 3.3250000E+000,-2.1131513E-004, 1.0882716E-004,-1.3002188E+000
 3.4500000E+000, 3.4250000E+000,-2.1385707E-004, 1.0863622E-004,-1.3233956E+000
 3.5500000E+000, 3.5250001E+000,-2.1997142E-004, 1.0916447E-004,-1.3391083E+000
 3.6500000E+000, 3.6250000E+000,-2.2124294E-004, 1.0945603E-004,-1.3441626E+000
 3.7500000E+000, 3.7249999E+000,-2.2251462E-004, 1.0822621E-004,-1.3533258E+000
 3.8500000E+000, 3.8250000E+000,-2.2134284E-004, 1.0722737E-004,-1.3607579E+000
 3.9500000E+000, 3.9250000E+000,-2.1988322E-004, 1.0735589E-004,-1.3711416E+000
 4.0500000E+000, 4.0250001E+000,-2.1842365E-004, 1.0750185E-004,-1.3787282E+000
 4.1500000E+000, 4.1250000E+000,-2.1559153E-004, 1.0921777E-004,-1.3858283E+000
 4.2500000E+000, 4.2249999E+000,-2.1354863E-004, 1.1011717E-004,-1.3949332E+000
 4.3500000E+000, 4.3249998E+000,-2.1150576E-004, 1.0996368E-004,-1.4056020E+000
 4.4500000E+000, 4.4250002E+000,-2.0628005E-004, 1.0886535E-004,-1.4143208E+000
 4.5500000E+000, 4.5250001E+000,-2.0428692E-004, 1.0792079E-004,-1.4237378E+000
 4.6500000E+000, 4.6250000E+000,-2.0229389E-004, 1.0783982E-004,-1.4313852E+000
 4.7500000E+000, 4.7249999E+000,-1.9727061E-004, 1.0789423E-004,-1.4355682E+000
 4.8500000E+000, 4.8249998E+000,-1.9565946E-004, 1.0861201E-004,-1.4422022E+000
 4.9500000E+000, 4.9250002E+000,-1.9404855E-004, 1.1053578E-004,-1.4460592E+000
 5.0500000E+000, 5.0250001E+000,-1.9033377E-004, 1.1067139E-004,-1.4496311E+000
 5.1500000E+000, 5.1250000E+000,-1.8893278E-004, 1.1035047E-004,-1.4507852E+000
 5.2500000E+000, 5.2249999E+000,-1.8753209E-004, 1.0994518E-004,-1.4499635E+000
 5.3500000E+000, 5.3249998E+000,-1.8372464E-004, 1.1017697E-004,-1.4484704E+000
 5.4500000E+000, 5.4250002E+000,-1.8228574E-004, 1.1005897E-004,-1.4464917E+000
 5.5500000E+000, 5.5250001E+000,-1.8084722E-004, 1.0989990E-004,-1.4445260E+000
 5.6500000E+000, 5.6250000E+000,-1.7846371E-004, 1.0965149E-004,-1.4419807E+000
 5.7500000E+000, 5.7249999E+000,-1.7826864E-004, 1.0949154E-004,-1.4394670E+000
 5.8500000E+000, 5.8249998E+000,-1.7807397E-004, 1.0898445E-004,-1.4378836E+000
 5.9500000E+000, 5.9250002E+000,-1.7659701E-004, 1.0865144E-004,-1.4377952E+000
 6.0500000E+000, 6.0250001E+000,-1.7577110E-004, 1.0840992E-004,-1.4374956E+000
 6.1500000E+000, 6.1250000E+000,-1.7494566E-004, 1.0775528E-004,-1.4378823E+000
 6.2500000E+000, 6.2249999E+000,-1.7392737E-004, 1.0758221E-004,-1.4388272E+000
 6.3500000E+000, 6.3249998E+000,-1.7397186E-004, 1.0750350E-004,-1.4388962E+000
 6.4500000E+000, 6.4250002E+000,-1.7401684E-004, 1.0811093E-004,-1.4390370E+000
 6.5500000E+000, 6.5250001E+000,-1.7446690E-004, 1.0814648E-004,-1.4392277E+000
 6.6500000E+000, 6.6250000E+000,-1.7412033E-004, 1.0904676E-004,-1.4405018E+000
 6.7500000E+000, 6.7249999E+000,-1.7377427E-004, 1.0877872E-004,-1.4411340E+000
 6.8500000E+000, 6.8249998E+000,-1.7284225E-004, 1.0886292E-004,-1.4426736E+000
 6.9500000E+000, 6.9250002E+000,-1.7273612E-004, 1.0909657E-004,-1.4431790E+000
 7.0500000E+000, 7.0250001E+000,-1.7263049E-004, 1.0858223E-004,-1.4443733E+000
 7.1500000E+000, 7.1250000E+000,-1.7288516E-004, 1.0822729E-004,-1.4461257E+000
 7.2500000E+000, 7.2249999E+000,-1.7327195E-004, 1.0791115E-004,-1.4468669E+000
 7.3500000E+000, 7.3249998E+000,-1.7365922E-004, 1.0820077E-004,-1.4480464E+000
 7.4500000E+000, 7.4250002E+000,-1.7404139E-004, 1.0822645E-004,-1.4487947E+000
 7.5500000E+000, 7.5250001E+000,-1.7479880E-004, 1.0846199E-004,-1.4488549E+000
 7.6500000E+000, 7.6250000E+000,-1.7555665E-004, 1.0846961E-004,-1.4490013E+000
 7.7500000E+000, 7.7249999E+000,-1.7741561E-004, 1.0858470E-004,-1.4493690E+000
 7.8500000E+000, 7.8249998E+000,-1.7768794E-004, 1.0846978E-004,-1.4501570E+000
 7.9500000E+000, 7.9250002E+000,-1.7796062E-004, 1.0890992E-004,-1.4508632E+000
 8.0500000E+000, 8.0249996E+000,-1.7815332E-004, 1.0869419E-004,-1.4524926E+000
 8.1500000E+000, 8.1250000E+000,-1.7912996E-004, 1.0845283E-004,-1.4537677E+000
 8.2500000E+000, 8.2250004E+000,-1.8010687E-004, 1.0838266E-004,-1.4539559E+000
 8.3500000E+000, 8.3249998E+000,-1.8162414E-004, 1.0805624E-004,-1.4541332E+000
 8.4500000E+000, 8.4250002E+000,-1.8204666E-004, 1.0840650E-004,-1.4541937E+000
 8.5000000E+000, 8.5000000E+000,-1.8245335E-004, 1.0811478E-004,-1.4531152E+000
 8.6000000E+000, 8.5749998E+000,-1.8339556E-004, 1.0819522E-004,-1.4531829E+000
 8.7000000E+000, 8.6750002E+000,-1.8435389E-004, 1.0802550E-004,-1.4529970E+000
 8.8000000E+000, 8.7749996E+000,-1.8719331E-004, 1.0811413E-004,-1.4532410E+000
 8.9000000E+000, 8.8750000E+000,-1.8803745E-004, 1.0779764E-004,-1.4531204E+000
 9.0000000E+000, 8.9750004E+000,-1.8888156E-004, 1.0771558E-004,-1.4526514E+000
 9.1000000E+000, 9.0749998E+000, 4.5277525E-002, 1.0872720E-004,-1.4528137E+000
 9.2000000E+000, 9.1750002E+000, 1.9659287E-001, 1.0908605E-004,-1.4524632E+000
 9.3000000E+000, 9.2749996E+000, 3.4790936E-001, 1.0950861E-004,-1.4527702E+000
 9.4000000E+000, 9.3750000E+000, 7.1571755E-001, 1.0975448E-004,-1.4533219E+000
 9.5000000E+000, 9.4750004E+000, 8.7688559E-001, 1.0959584E-004,-1.4539142E+000
 9.6000000E+000, 9.5749998E+000, 1.0380551E+000, 1.0955498E-004,-1.4543154E+000
 9.7000000E+000, 9.6750002E+000, 1.4239120E+000, 1.0931430E-004,-1.4545600E+000
 9.8000000E+000, 9.7749996E+000, 1.5546452E+000, 1.0943538E-004,-1.4539033E+000
 9.9000000E+000, 9.8750000E+000, 1.6853797E+000, 1.0962493E-004,-1.4536706E+000
 1.0000000E+001, 9.9750004E+000, 1.6864429E+000, 1.0983709E-004,-1.4533091E+000
 1.0100000E+001, 1.0075000E+001, 1.6874517E+000, 1.0989905E-004,-1.4526253E+000
 1.0200000E+001, 1.0175000E+001, 1.6884611E+000, 1.0990666E-004,-1.4521301E+000
 1.0300000E+001, 1.0275000E+001, 1.6901213E+000, 1.1032593E-004,-1.4525477E+000
 1.0400000E+001, 1.0375000E+001, 1.6905515E+000, 1.1006286E-004,-1.4529307E+000
 1.0500000E+001, 1.0475000E+001, 1.6909821E+000, 1.1043870E-004,-1.4529326E+000
 1.0600000E+001, 1.0575000E+001, 1.6909004E+000, 1.1063949E-004,-1.4528118E+000
 1.0700000E+001, 1.0675000E+001, 1.6920240E+000, 1.1056856E-004,-1.4520226E+000
 1.0800000E+001, 1.0775000E+001, 1.6931478E+000, 1.1081909E-004,-1.4509523E+000
 1.0900000E+001, 1.0875000E+001, 1.6910676E+000, 1.1086790E-004,-1.4498290E+000
 1.1000000E+001, 1.0975000E+001, 1.6901667E+000, 1.1106523E-004,-1.4496279E+000
 1.1100000E+001, 1.1075000E+001, 1.6892661E+000, 1.1097925E-004,-1.4490396E+000
 1.1200000E+001, 1.1175000E+001, 1.6880411E+000, 1.1124444E-004,-1.4498417E+000
 1.1300000E+001, 1.1275000E+001, 1.6875931E+000, 1.1084227E-004,-1.4503300E+000
 1.1400000E+001, 1.1375000E+001, 1.6871452E+000, 1.1053735E-004,-1.4507447E+000
 1.1500000E+001, 1.1475000E+001, 1.6853646E+000, 1.1024287E-004,-1.4506608E+000
 1.1600000E+001, 1.1575000E+001, 1.6851015E+000, 1.1014625E-004,-1.4502794E+000
 1.1700000E+001, 1.1675000E+001, 1.6848385E+000, 1.1031532E-004,-1.4503558E+000
 1.1800000E+001, 1.1775000E+001, 1.6841769E+000, 1.1043225E-004,-1.4504155E+000
 1.1900000E+001, 1.1875000E+001, 1.6843166E+000, 1.1029649E-004,-1.4502877E+000
 1.2000000E+001, 1.1975000E+001, 1.6844565E+000, 1.1033968E-004,-1.4503089E+000
 1.2100000E+001, 1.2075000E+001, 1.6866028E+000, 1.1012200E-004,-1.4503551E+000
 1.2200000E+001, 1.2175000E+001, 1.6866429E+000, 1.1001978E-004,-1.4506539E+000
 1.2300000E+001, 1.2275000E+001, 1.6866831E+000, 1.0993723E-004,-1.4512194E+000
 1.2400000E+001, 1.2375000E+001, 1.6860397E+000, 1.0998754E-004,-1.4516948E+000
 1.2500000E+001, 1.2475000E+001, 1.6867832E+000, 1.0996480E-004,-1.4526771E+000
 1.2600000E+001, 1.2575000E+001, 1.6875267E+000, 1.0991066E-004,-1.4534891E+000
 1.2700000E+001, 1.2675000E+001, 1.6891377E+000, 1.0995318E-004,-1.4540350E+000
 1.2834026E+001, 1.2789351E+001, 1.6882371E+000, 1.1005261E-004,-1.4540683E+000
 1.2923376E+001, 1.2901038E+001, 1.6877024E+000, 1.1026407E-004,-1.4534532E+000
 1.3012726E+001, 1.2990389E+001, 1.6876240E+000, 1.1055975E-004,-1.4527948E+000
 1.3102077E+001, 1.3079740E+001, 1.6857659E+000, 1.1045696E-004,-1.4517701E+000
 1.3236102E+001, 1.3191427E+001, 1.6840913E+000, 1.1024329E-004,-1.4505318E+000
 1.3325453E+001, 1.3303115E+001, 1.6813214E+000, 1.1020695E-004,-1.4491529E+000
 1.3414803E+001, 1.3392466E+001, 1.6793945E+000, 1.1020066E-004,-1.4477353E+000
 1.3504154E+001, 1.3481816E+001, 1.6758363E+000, 1.1005439E-004,-1.4457664E+000
 1.3638179E+001, 1.3593504E+001, 1.6744109E+000, 1.0986369E-004,-1.4440949E+000
 1.3727530E+001, 1.3705192E+001, 1.6739290E+000, 1.0966772E-004,-1.4412658E+000
 1.3816880E+001, 1.3794542E+001, 1.6741657E+000, 1.0979595E-004,-1.4390895E+000
 1.3906230E+001, 1.3883893E+001, 1.6730758E+000, 1.1008919E-004,-1.4365605E+000
 1.4040256E+001, 1.3995581E+001, 1.6729627E+000, 1.0992483E-004,-1.4331746E+000
 1.4134074E+001, 1.4110673E+001, 1.6725839E+000, 1.1002617E-004,-1.4301636E+000
 1.4232359E+001, 1.4207788E+001, 1.6722989E+000, 1.0995342E-004,-1.4283415E+000
 1.4330645E+001, 1.4306073E+001, 1.6692970E+000, 1.0992298E-004,-1.4270751E+000
 1.4428930E+001, 1.4404359E+001, 1.6691214E+000, 1.0988759E-004,-1.4264970E+000
 1.4527216E+001, 1.4502645E+001, 1.6689458E+000, 1.0974235E-004,-1.4267416E+000
 1.4625501E+001, 1.4600930E+001, 1.6707611E+000, 1.0969485E-004,-1.4277633E+000
 1.4723787E+001, 1.4699215E+001, 1.6714989E+000, 1.0995823E-004,-1.4286152E+000
 1.4822072E+001, 1.4797501E+001, 1.6722368E+000, 1.1016362E-004,-1.4294310E+000
 1.4920358E+001, 1.4895786E+001, 1.6753021E+000, 1.1005590E-004,-1.4293045E+000
 1.5018643E+001, 1.4994072E+001, 1.6763093E+000, 1.0998030E-004,-1.4291816E+000
