s,C,C
Time,"Cable Temp","Shroud Temp"
 0.000E+00, 2.800E+01, 2.800E+01
 1.510E+01, 2.801E+01, 6.210E+01
 3.007E+01, 2.831E+01, 1.291E+02
 4.506E+01, 2.958E+01, 1.961E+02
 6.002E+01, 3.253E+01, 2.630E+02
 7.503E+01, 3.794E+01, 3.300E+02
 9.002E+01, 4.671E+01, 3.970E+02
 1.050E+02, 5.998E+01, 4.602E+02
 1.200E+02, 7.820E+01, 4.750E+02
 1.350E+02, 9.797E+01, 4.750E+02
 1.500E+02, 1.166E+02, 4.750E+02
 1.650E+02, 1.337E+02, 4.750E+02
 1.800E+02, 1.496E+02, 4.750E+02
 1.950E+02, 1.643E+02, 4.750E+02
 2.100E+02, 1.780E+02, 4.750E+02
 2.250E+02, 1.908E+02, 4.750E+02
 2.400E+02, 2.028E+02, 4.750E+02
 2.550E+02, 2.142E+02, 4.750E+02
 2.700E+02, 2.249E+02, 4.750E+02
 2.850E+02, 2.351E+02, 4.750E+02
 3.000E+02, 2.448E+02, 4.750E+02
 3.150E+02, 2.541E+02, 4.750E+02
 3.300E+02, 2.628E+02, 4.750E+02
 3.450E+02, 2.712E+02, 4.750E+02
 3.600E+02, 2.791E+02, 4.750E+02
 3.750E+02, 2.867E+02, 4.750E+02
 3.900E+02, 2.940E+02, 4.750E+02
 4.050E+02, 3.009E+02, 4.750E+02
 4.200E+02, 3.076E+02, 4.750E+02
 4.350E+02, 3.139E+02, 4.750E+02
 4.500E+02, 3.200E+02, 4.750E+02
 4.650E+02, 3.258E+02, 4.750E+02
 4.800E+02, 3.313E+02, 4.750E+02
 4.950E+02, 3.367E+02, 4.750E+02
 5.100E+02, 3.417E+02, 4.750E+02
 5.250E+02, 3.465E+02, 4.750E+02
 5.400E+02, 3.511E+02, 4.750E+02
 5.550E+02, 3.555E+02, 4.750E+02
 5.700E+02, 3.597E+02, 4.750E+02
 5.850E+02, 3.637E+02, 4.750E+02
 6.000E+02, 3.675E+02, 4.750E+02
 6.150E+02, 3.712E+02, 4.750E+02
 6.300E+02, 3.747E+02, 4.750E+02
 6.450E+02, 3.780E+02, 4.750E+02
 6.600E+02, 3.811E+02, 4.750E+02
 6.750E+02, 3.842E+02, 4.750E+02
 6.900E+02, 3.871E+02, 4.750E+02
 7.050E+02, 3.898E+02, 4.750E+02
 7.200E+02, 3.924E+02, 4.750E+02
 7.350E+02, 3.949E+02, 4.750E+02
 7.500E+02, 3.972E+02, 4.750E+02
 7.650E+02, 3.995E+02, 4.750E+02
 7.800E+02, 4.016E+02, 4.750E+02
 7.950E+02, 4.037E+02, 4.750E+02
 8.100E+02, 4.057E+02, 4.750E+02
 8.250E+02, 4.075E+02, 4.750E+02
 8.400E+02, 4.093E+02, 4.750E+02
 8.550E+02, 4.110E+02, 4.750E+02
 8.700E+02, 4.126E+02, 4.750E+02
 8.850E+02, 4.142E+02, 4.750E+02
 9.000E+02, 4.156E+02, 4.750E+02
 9.150E+02, 4.170E+02, 4.750E+02
 9.300E+02, 4.183E+02, 4.750E+02
 9.450E+02, 4.196E+02, 4.750E+02
 9.600E+02, 4.209E+02, 4.750E+02
 9.750E+02, 4.220E+02, 4.750E+02
 9.900E+02, 4.232E+02, 4.750E+02
 1.005E+03, 4.242E+02, 4.750E+02
 1.020E+03, 4.252E+02, 4.750E+02
 1.035E+03, 4.261E+02, 4.750E+02
 1.050E+03, 4.270E+02, 4.750E+02
 1.065E+03, 4.279E+02, 4.750E+02
 1.080E+03, 4.287E+02, 4.750E+02
 1.095E+03, 4.295E+02, 4.750E+02
 1.110E+03, 4.302E+02, 4.750E+02
 1.125E+03, 4.309E+02, 4.750E+02
 1.140E+03, 4.315E+02, 4.750E+02
 1.155E+03, 4.322E+02, 4.750E+02
 1.170E+03, 4.328E+02, 4.750E+02
 1.185E+03, 4.334E+02, 4.750E+02
 1.200E+03, 4.339E+02, 4.750E+02
 1.215E+03, 4.345E+02, 4.750E+02
 1.230E+03, 4.350E+02, 4.750E+02
 1.245E+03, 4.356E+02, 4.750E+02
 1.260E+03, 4.360E+02, 4.750E+02
 1.275E+03, 4.365E+02, 4.750E+02
 1.290E+03, 4.369E+02, 4.750E+02
 1.305E+03, 4.372E+02, 4.746E+02
 1.320E+03, 4.375E+02, 4.694E+02
 1.335E+03, 4.374E+02, 4.627E+02
 1.350E+03, 4.368E+02, 4.560E+02
 1.365E+03, 4.357E+02, 4.493E+02
 1.380E+03, 4.341E+02, 4.426E+02
 1.395E+03, 4.323E+02, 4.359E+02
 1.410E+03, 4.302E+02, 4.292E+02
 1.425E+03, 4.279E+02, 4.225E+02
 1.440E+03, 4.253E+02, 4.158E+02
 1.455E+03, 4.226E+02, 4.090E+02
 1.470E+03, 4.199E+02, 4.023E+02
 1.485E+03, 4.169E+02, 3.956E+02
 1.500E+03, 4.139E+02, 3.889E+02
 1.515E+03, 4.107E+02, 3.822E+02
 1.530E+03, 4.074E+02, 3.755E+02
 1.545E+03, 4.040E+02, 3.688E+02
 1.560E+03, 4.004E+02, 3.621E+02
 1.575E+03, 3.969E+02, 3.554E+02
 1.590E+03, 3.933E+02, 3.487E+02
 1.605E+03, 3.896E+02, 3.420E+02
 1.620E+03, 3.858E+02, 3.353E+02
 1.635E+03, 3.820E+02, 3.286E+02
 1.650E+03, 3.782E+02, 3.219E+02
 1.665E+03, 3.744E+02, 3.152E+02
 1.680E+03, 3.705E+02, 3.085E+02
 1.695E+03, 3.665E+02, 3.018E+02
 1.710E+03, 3.626E+02, 2.966E+02
 1.725E+03, 3.586E+02, 2.962E+02
 1.740E+03, 3.549E+02, 2.962E+02
 1.755E+03, 3.515E+02, 2.962E+02
 1.770E+03, 3.483E+02, 2.962E+02
 1.785E+03, 3.453E+02, 2.962E+02
 1.800E+03, 3.425E+02, 2.962E+02
