s,C,C,C
Time,"Cable Temp","Shroud Temp","Conduit"
 0.000E+00, 3.100E+01, 3.100E+01, 3.100E+01
 1.505E+01, 3.100E+01, 6.856E+01, 3.106E+01
 3.002E+01, 3.100E+01, 1.424E+02, 3.162E+01
 4.502E+01, 3.102E+01, 2.163E+02, 3.322E+01
 6.001E+01, 3.105E+01, 2.902E+02, 3.640E+01
 7.502E+01, 3.116E+01, 3.642E+02, 4.196E+01
 9.000E+01, 3.139E+01, 4.381E+02, 5.075E+01
 1.050E+02, 3.170E+01, 4.750E+02, 6.286E+01
 1.200E+02, 3.215E+01, 4.750E+02, 7.558E+01
 1.350E+02, 3.281E+01, 4.750E+02, 8.805E+01
 1.500E+02, 3.366E+01, 4.750E+02, 1.003E+02
 1.650E+02, 3.467E+01, 4.750E+02, 1.123E+02
 1.800E+02, 3.586E+01, 4.750E+02, 1.240E+02
 1.950E+02, 3.719E+01, 4.750E+02, 1.356E+02
 2.100E+02, 3.874E+01, 4.750E+02, 1.469E+02
 2.250E+02, 4.059E+01, 4.750E+02, 1.579E+02
 2.400E+02, 4.268E+01, 4.750E+02, 1.686E+02
 2.550E+02, 4.488E+01, 4.750E+02, 1.791E+02
 2.700E+02, 4.716E+01, 4.750E+02, 1.892E+02
 2.850E+02, 4.970E+01, 4.750E+02, 1.992E+02
 3.000E+02, 5.248E+01, 4.750E+02, 2.088E+02
 3.150E+02, 5.547E+01, 4.750E+02, 2.182E+02
 3.300E+02, 5.872E+01, 4.750E+02, 2.273E+02
 3.450E+02, 6.216E+01, 4.750E+02, 2.361E+02
 3.600E+02, 6.576E+01, 4.750E+02, 2.447E+02
 3.750E+02, 6.950E+01, 4.750E+02, 2.529E+02
 3.900E+02, 7.343E+01, 4.750E+02, 2.610E+02
 4.050E+02, 7.759E+01, 4.750E+02, 2.687E+02
 4.200E+02, 8.193E+01, 4.750E+02, 2.762E+02
 4.350E+02, 8.652E+01, 4.750E+02, 2.834E+02
 4.500E+02, 9.129E+01, 4.750E+02, 2.903E+02
 4.650E+02, 9.623E+01, 4.750E+02, 2.970E+02
 4.800E+02, 1.014E+02, 4.750E+02, 3.035E+02
 4.950E+02, 1.066E+02, 4.750E+02, 3.097E+02
 5.100E+02, 1.118E+02, 4.750E+02, 3.156E+02
 5.250E+02, 1.172E+02, 4.750E+02, 3.213E+02
 5.400E+02, 1.228E+02, 4.750E+02, 3.267E+02
 5.550E+02, 1.284E+02, 4.750E+02, 3.319E+02
 5.700E+02, 1.341E+02, 4.750E+02, 3.368E+02
 5.850E+02, 1.399E+02, 4.750E+02, 3.416E+02
 6.000E+02, 1.458E+02, 4.750E+02, 3.461E+02
 6.150E+02, 1.516E+02, 4.750E+02, 3.505E+02
 6.300E+02, 1.576E+02, 4.750E+02, 3.547E+02
 6.450E+02, 1.635E+02, 4.750E+02, 3.587E+02
 6.600E+02, 1.695E+02, 4.750E+02, 3.624E+02
 6.750E+02, 1.755E+02, 4.750E+02, 3.660E+02
 6.900E+02, 1.814E+02, 4.750E+02, 3.695E+02
 7.050E+02, 1.874E+02, 4.750E+02, 3.727E+02
 7.200E+02, 1.933E+02, 4.750E+02, 3.759E+02
 7.350E+02, 1.993E+02, 4.750E+02, 3.788E+02
 7.500E+02, 2.052E+02, 4.750E+02, 3.816E+02
 7.650E+02, 2.110E+02, 4.750E+02, 3.843E+02
 7.800E+02, 2.167E+02, 4.750E+02, 3.868E+02
 7.950E+02, 2.224E+02, 4.750E+02, 3.892E+02
 8.100E+02, 2.280E+02, 4.750E+02, 3.916E+02
 8.250E+02, 2.335E+02, 4.750E+02, 3.939E+02
 8.400E+02, 2.389E+02, 4.750E+02, 3.960E+02
 8.550E+02, 2.442E+02, 4.750E+02, 3.980E+02
 8.700E+02, 2.495E+02, 4.750E+02, 3.999E+02
 8.850E+02, 2.547E+02, 4.750E+02, 4.017E+02
 9.000E+02, 2.598E+02, 4.750E+02, 4.035E+02
 9.150E+02, 2.648E+02, 4.750E+02, 4.051E+02
 9.300E+02, 2.697E+02, 4.750E+02, 4.067E+02
 9.450E+02, 2.744E+02, 4.750E+02, 4.083E+02
 9.600E+02, 2.791E+02, 4.750E+02, 4.097E+02
 9.750E+02, 2.837E+02, 4.750E+02, 4.110E+02
 9.900E+02, 2.882E+02, 4.750E+02, 4.123E+02
 1.005E+03, 2.926E+02, 4.750E+02, 4.135E+02
 1.020E+03, 2.968E+02, 4.750E+02, 4.146E+02
 1.035E+03, 3.010E+02, 4.750E+02, 4.159E+02
 1.050E+03, 3.051E+02, 4.750E+02, 4.169E+02
 1.065E+03, 3.090E+02, 4.750E+02, 4.179E+02
 1.080E+03, 3.129E+02, 4.750E+02, 4.189E+02
 1.095E+03, 3.167E+02, 4.750E+02, 4.200E+02
 1.110E+03, 3.204E+02, 4.750E+02, 4.209E+02
 1.125E+03, 3.239E+02, 4.750E+02, 4.216E+02
 1.140E+03, 3.273E+02, 4.750E+02, 4.224E+02
 1.155E+03, 3.307E+02, 4.750E+02, 4.234E+02
 1.170E+03, 3.341E+02, 4.750E+02, 4.243E+02
 1.185E+03, 3.373E+02, 4.750E+02, 4.249E+02
 1.200E+03, 3.404E+02, 4.750E+02, 4.255E+02
 1.215E+03, 3.433E+02, 4.750E+02, 4.260E+02
 1.230E+03, 3.461E+02, 4.750E+02, 4.266E+02
 1.245E+03, 3.490E+02, 4.750E+02, 4.271E+02
 1.260E+03, 3.518E+02, 4.750E+02, 4.278E+02
 1.275E+03, 3.545E+02, 4.750E+02, 4.284E+02
 1.290E+03, 3.572E+02, 4.750E+02, 4.289E+02
 1.305E+03, 3.597E+02, 4.750E+02, 4.295E+02
 1.320E+03, 3.623E+02, 4.750E+02, 4.301E+02
 1.335E+03, 3.647E+02, 4.750E+02, 4.306E+02
 1.350E+03, 3.670E+02, 4.750E+02, 4.311E+02
 1.365E+03, 3.692E+02, 4.750E+02, 4.316E+02
 1.380E+03, 3.715E+02, 4.750E+02, 4.321E+02
 1.395E+03, 3.736E+02, 4.750E+02, 4.326E+02
 1.410E+03, 3.757E+02, 4.750E+02, 4.331E+02
 1.425E+03, 3.777E+02, 4.750E+02, 4.335E+02
 1.440E+03, 3.797E+02, 4.750E+02, 4.339E+02
 1.455E+03, 3.815E+02, 4.750E+02, 4.342E+02
 1.470E+03, 3.833E+02, 4.750E+02, 4.346E+02
 1.485E+03, 3.852E+02, 4.750E+02, 4.350E+02
 1.500E+03, 3.870E+02, 4.750E+02, 4.353E+02
 1.515E+03, 3.886E+02, 4.750E+02, 4.357E+02
 1.530E+03, 3.902E+02, 4.750E+02, 4.361E+02
 1.545E+03, 3.918E+02, 4.750E+02, 4.363E+02
 1.560E+03, 3.933E+02, 4.750E+02, 4.366E+02
 1.575E+03, 3.948E+02, 4.750E+02, 4.369E+02
 1.590E+03, 3.963E+02, 4.750E+02, 4.373E+02
 1.605E+03, 3.977E+02, 4.750E+02, 4.376E+02
 1.620E+03, 3.991E+02, 4.750E+02, 4.378E+02
 1.635E+03, 4.004E+02, 4.750E+02, 4.381E+02
 1.650E+03, 4.017E+02, 4.750E+02, 4.382E+02
 1.665E+03, 4.027E+02, 4.750E+02, 4.383E+02
 1.680E+03, 4.038E+02, 4.750E+02, 4.386E+02
 1.695E+03, 4.050E+02, 4.750E+02, 4.390E+02
 1.710E+03, 4.061E+02, 4.750E+02, 4.391E+02
 1.725E+03, 4.071E+02, 4.750E+02, 4.391E+02
 1.740E+03, 4.081E+02, 4.750E+02, 4.393E+02
 1.755E+03, 4.091E+02, 4.750E+02, 4.394E+02
 1.770E+03, 4.100E+02, 4.750E+02, 4.395E+02
 1.785E+03, 4.110E+02, 4.750E+02, 4.397E+02
 1.800E+03, 4.119E+02, 4.750E+02, 4.400E+02
 1.815E+03, 4.128E+02, 4.750E+02, 4.402E+02
 1.830E+03, 4.137E+02, 4.750E+02, 4.404E+02
 1.845E+03, 4.146E+02, 4.750E+02, 4.405E+02
 1.860E+03, 4.153E+02, 4.750E+02, 4.406E+02
 1.875E+03, 4.160E+02, 4.750E+02, 4.407E+02
 1.890E+03, 4.167E+02, 4.750E+02, 4.406E+02
 1.905E+03, 4.172E+02, 4.750E+02, 4.406E+02
 1.920E+03, 4.177E+02, 4.750E+02, 4.406E+02
 1.935E+03, 4.183E+02, 4.750E+02, 4.407E+02
 1.950E+03, 4.190E+02, 4.750E+02, 4.409E+02
 1.965E+03, 4.196E+02, 4.750E+02, 4.411E+02
 1.980E+03, 4.203E+02, 4.750E+02, 4.411E+02
 1.995E+03, 4.209E+02, 4.750E+02, 4.412E+02
 2.010E+03, 4.214E+02, 4.750E+02, 4.413E+02
 2.025E+03, 4.220E+02, 4.750E+02, 4.414E+02
 2.040E+03, 4.225E+02, 4.750E+02, 4.415E+02
 2.055E+03, 4.230E+02, 4.750E+02, 4.417E+02
 2.070E+03, 4.236E+02, 4.750E+02, 4.420E+02
 2.085E+03, 4.242E+02, 4.750E+02, 4.422E+02
 2.100E+03, 4.248E+02, 4.750E+02, 4.424E+02
 2.115E+03, 4.253E+02, 4.750E+02, 4.424E+02
 2.130E+03, 4.257E+02, 4.750E+02, 4.424E+02
 2.145E+03, 4.260E+02, 4.750E+02, 4.425E+02
 2.160E+03, 4.264E+02, 4.750E+02, 4.425E+02
 2.175E+03, 4.267E+02, 4.750E+02, 4.425E+02
 2.190E+03, 4.271E+02, 4.750E+02, 4.425E+02
 2.205E+03, 4.275E+02, 4.750E+02, 4.425E+02
 2.220E+03, 4.277E+02, 4.750E+02, 4.425E+02
 2.235E+03, 4.280E+02, 4.750E+02, 4.425E+02
 2.250E+03, 4.283E+02, 4.750E+02, 4.425E+02
 2.265E+03, 4.287E+02, 4.750E+02, 4.427E+02
 2.280E+03, 4.290E+02, 4.750E+02, 4.427E+02
 2.295E+03, 4.293E+02, 4.750E+02, 4.427E+02
 2.310E+03, 4.295E+02, 4.750E+02, 4.427E+02
 2.325E+03, 4.296E+02, 4.750E+02, 4.427E+02
 2.340E+03, 4.299E+02, 4.750E+02, 4.428E+02
 2.355E+03, 4.303E+02, 4.750E+02, 4.429E+02
 2.370E+03, 4.305E+02, 4.750E+02, 4.427E+02
 2.385E+03, 4.307E+02, 4.750E+02, 4.429E+02
 2.400E+03, 4.310E+02, 4.750E+02, 4.430E+02
 2.415E+03, 4.313E+02, 4.750E+02, 4.431E+02
 2.430E+03, 4.316E+02, 4.750E+02, 4.432E+02
 2.445E+03, 4.319E+02, 4.750E+02, 4.433E+02
 2.460E+03, 4.321E+02, 4.750E+02, 4.434E+02
 2.475E+03, 4.323E+02, 4.750E+02, 4.434E+02
 2.490E+03, 4.324E+02, 4.750E+02, 4.434E+02
 2.505E+03, 4.326E+02, 4.750E+02, 4.434E+02
 2.520E+03, 4.328E+02, 4.750E+02, 4.434E+02
 2.535E+03, 4.329E+02, 4.750E+02, 4.434E+02
 2.550E+03, 4.330E+02, 4.750E+02, 4.434E+02
 2.565E+03, 4.332E+02, 4.750E+02, 4.434E+02
 2.580E+03, 4.334E+02, 4.750E+02, 4.434E+02
 2.595E+03, 4.335E+02, 4.750E+02, 4.434E+02
 2.610E+03, 4.337E+02, 4.750E+02, 4.435E+02
 2.625E+03, 4.339E+02, 4.750E+02, 4.436E+02
 2.640E+03, 4.341E+02, 4.750E+02, 4.435E+02
 2.655E+03, 4.342E+02, 4.750E+02, 4.435E+02
 2.670E+03, 4.342E+02, 4.750E+02, 4.435E+02
 2.685E+03, 4.343E+02, 4.750E+02, 4.434E+02
 2.700E+03, 4.344E+02, 4.750E+02, 4.436E+02
 2.715E+03, 4.345E+02, 4.750E+02, 4.436E+02
 2.730E+03, 4.346E+02, 4.750E+02, 4.435E+02
 2.745E+03, 4.347E+02, 4.750E+02, 4.437E+02
 2.760E+03, 4.349E+02, 4.750E+02, 4.438E+02
 2.775E+03, 4.350E+02, 4.750E+02, 4.437E+02
 2.790E+03, 4.351E+02, 4.750E+02, 4.438E+02
 2.805E+03, 4.353E+02, 4.750E+02, 4.438E+02
 2.820E+03, 4.354E+02, 4.750E+02, 4.438E+02
 2.835E+03, 4.355E+02, 4.750E+02, 4.437E+02
 2.850E+03, 4.355E+02, 4.750E+02, 4.437E+02
 2.865E+03, 4.355E+02, 4.750E+02, 4.437E+02
 2.880E+03, 4.355E+02, 4.750E+02, 4.437E+02
 2.895E+03, 4.356E+02, 4.750E+02, 4.437E+02
 2.910E+03, 4.357E+02, 4.750E+02, 4.437E+02
 2.925E+03, 4.357E+02, 4.750E+02, 4.437E+02
 2.940E+03, 4.357E+02, 4.750E+02, 4.436E+02
 2.955E+03, 4.357E+02, 4.750E+02, 4.437E+02
 2.970E+03, 4.357E+02, 4.750E+02, 4.436E+02
 2.985E+03, 4.356E+02, 4.715E+02, 4.435E+02
 3.000E+03, 4.356E+02, 4.646E+02, 4.430E+02
 3.015E+03, 4.356E+02, 4.576E+02, 4.420E+02
 3.030E+03, 4.357E+02, 4.507E+02, 4.409E+02
 3.045E+03, 4.356E+02, 4.438E+02, 4.394E+02
 3.060E+03, 4.354E+02, 4.368E+02, 4.377E+02
 3.075E+03, 4.353E+02, 4.299E+02, 4.356E+02
 3.090E+03, 4.350E+02, 4.229E+02, 4.334E+02
 3.105E+03, 4.346E+02, 4.160E+02, 4.311E+02
 3.120E+03, 4.342E+02, 4.091E+02, 4.284E+02
 3.135E+03, 4.335E+02, 4.021E+02, 4.255E+02
 3.150E+03, 4.326E+02, 3.952E+02, 4.224E+02
 3.165E+03, 4.316E+02, 3.883E+02, 4.191E+02
 3.180E+03, 4.305E+02, 3.813E+02, 4.158E+02
 3.195E+03, 4.291E+02, 3.744E+02, 4.123E+02
 3.210E+03, 4.277E+02, 3.674E+02, 4.086E+02
 3.225E+03, 4.262E+02, 3.605E+02, 4.051E+02
 3.240E+03, 4.248E+02, 3.536E+02, 4.015E+02
 3.255E+03, 4.234E+02, 3.466E+02, 3.977E+02
 3.270E+03, 4.217E+02, 3.397E+02, 3.940E+02
 3.285E+03, 4.201E+02, 3.328E+02, 3.903E+02
 3.300E+03, 4.186E+02, 3.258E+02, 3.865E+02
 3.315E+03, 4.168E+02, 3.189E+02, 3.827E+02
 3.330E+03, 4.151E+02, 3.119E+02, 3.789E+02
 3.345E+03, 4.133E+02, 3.050E+02, 3.751E+02
 3.360E+03, 4.113E+02, 2.981E+02, 3.712E+02
 3.375E+03, 4.093E+02, 2.911E+02, 3.672E+02
 3.390E+03, 4.073E+02, 2.842E+02, 3.634E+02
 3.405E+03, 4.052E+02, 2.773E+02, 3.593E+02
 3.420E+03, 4.028E+02, 2.703E+02, 3.552E+02
 3.435E+03, 4.003E+02, 2.634E+02, 3.512E+02
 3.450E+03, 3.980E+02, 2.564E+02, 3.472E+02
 3.465E+03, 3.957E+02, 2.530E+02, 3.433E+02
 3.480E+03, 3.934E+02, 2.530E+02, 3.395E+02
 3.495E+03, 3.909E+02, 2.530E+02, 3.359E+02
 3.510E+03, 3.885E+02, 2.530E+02, 3.325E+02
 3.525E+03, 3.861E+02, 2.530E+02, 3.292E+02
 3.540E+03, 3.837E+02, 2.530E+02, 3.260E+02
 3.555E+03, 3.813E+02, 2.530E+02, 3.230E+02
 3.570E+03, 3.791E+02, 2.530E+02, 3.202E+02
 3.585E+03, 3.766E+02, 2.530E+02, 3.173E+02
 3.600E+03, 3.741E+02, 2.530E+02, 3.146E+02
