s,C,C,C
Time,"Cable Temp","Shroud Temp","Conduit"
 0.000E+00, 3.100E+01, 3.100E+01, 3.100E+01
 1.502E+01, 3.100E+01, 6.882E+01, 3.106E+01
 3.001E+01, 3.100E+01, 1.434E+02, 3.163E+01
 4.500E+01, 3.101E+01, 2.180E+02, 3.330E+01
 6.003E+01, 3.105E+01, 2.885E+02, 3.660E+01
 7.504E+01, 3.118E+01, 3.050E+02, 4.122E+01
 9.003E+01, 3.139E+01, 3.050E+02, 4.587E+01
 1.050E+02, 3.162E+01, 3.050E+02, 5.046E+01
 1.200E+02, 3.192E+01, 3.050E+02, 5.501E+01
 1.350E+02, 3.233E+01, 3.050E+02, 5.945E+01
 1.500E+02, 3.277E+01, 3.050E+02, 6.384E+01
 1.650E+02, 3.325E+01, 3.050E+02, 6.814E+01
 1.800E+02, 3.378E+01, 3.050E+02, 7.236E+01
 1.950E+02, 3.436E+01, 3.050E+02, 7.653E+01
 2.100E+02, 3.494E+01, 3.050E+02, 8.065E+01
 2.250E+02, 3.554E+01, 3.050E+02, 8.469E+01
 2.400E+02, 3.621E+01, 3.050E+02, 8.869E+01
 2.550E+02, 3.695E+01, 3.050E+02, 9.259E+01
 2.700E+02, 3.771E+01, 3.050E+02, 9.641E+01
 2.850E+02, 3.854E+01, 3.050E+02, 1.002E+02
 3.000E+02, 3.942E+01, 3.050E+02, 1.039E+02
 3.150E+02, 4.034E+01, 3.050E+02, 1.075E+02
 3.300E+02, 4.126E+01, 3.050E+02, 1.111E+02
 3.450E+02, 4.218E+01, 3.050E+02, 1.146E+02
 3.600E+02, 4.317E+01, 3.050E+02, 1.180E+02
 3.750E+02, 4.419E+01, 3.050E+02, 1.214E+02
 3.900E+02, 4.524E+01, 3.050E+02, 1.248E+02
 4.050E+02, 4.633E+01, 3.050E+02, 1.280E+02
 4.200E+02, 4.750E+01, 3.050E+02, 1.312E+02
 4.350E+02, 4.871E+01, 3.050E+02, 1.344E+02
 4.500E+02, 4.992E+01, 3.050E+02, 1.375E+02
 4.650E+02, 5.117E+01, 3.050E+02, 1.405E+02
 4.800E+02, 5.248E+01, 3.050E+02, 1.435E+02
 4.950E+02, 5.383E+01, 3.050E+02, 1.464E+02
 5.100E+02, 5.521E+01, 3.050E+02, 1.493E+02
 5.250E+02, 5.661E+01, 3.050E+02, 1.521E+02
 5.400E+02, 5.805E+01, 3.050E+02, 1.549E+02
 5.550E+02, 5.954E+01, 3.050E+02, 1.576E+02
 5.700E+02, 6.106E+01, 3.050E+02, 1.602E+02
 5.850E+02, 6.259E+01, 3.050E+02, 1.628E+02
 6.000E+02, 6.415E+01, 3.050E+02, 1.654E+02
 6.150E+02, 6.576E+01, 3.050E+02, 1.680E+02
 6.300E+02, 6.740E+01, 3.050E+02, 1.705E+02
 6.450E+02, 6.907E+01, 3.050E+02, 1.729E+02
 6.600E+02, 7.076E+01, 3.050E+02, 1.752E+02
 6.750E+02, 7.247E+01, 3.050E+02, 1.775E+02
 6.900E+02, 7.422E+01, 3.050E+02, 1.798E+02
 7.050E+02, 7.599E+01, 3.050E+02, 1.821E+02
 7.200E+02, 7.778E+01, 3.050E+02, 1.843E+02
 7.350E+02, 7.961E+01, 3.050E+02, 1.864E+02
 7.500E+02, 8.146E+01, 3.050E+02, 1.885E+02
 7.650E+02, 8.332E+01, 3.050E+02, 1.905E+02
 7.800E+02, 8.517E+01, 3.050E+02, 1.926E+02
 7.950E+02, 8.706E+01, 3.050E+02, 1.945E+02
 8.100E+02, 8.895E+01, 3.050E+02, 1.964E+02
 8.250E+02, 9.086E+01, 3.050E+02, 1.983E+02
 8.400E+02, 9.280E+01, 3.050E+02, 2.001E+02
 8.550E+02, 9.476E+01, 3.050E+02, 2.019E+02
 8.700E+02, 9.671E+01, 3.050E+02, 2.037E+02
 8.850E+02, 9.866E+01, 3.050E+02, 2.054E+02
 9.000E+02, 1.006E+02, 3.050E+02, 2.070E+02
 9.150E+02, 1.025E+02, 3.050E+02, 2.085E+02
 9.300E+02, 1.045E+02, 3.050E+02, 2.101E+02
 9.450E+02, 1.065E+02, 3.050E+02, 2.116E+02
 9.600E+02, 1.085E+02, 3.050E+02, 2.132E+02
 9.750E+02, 1.105E+02, 3.050E+02, 2.147E+02
 9.900E+02, 1.125E+02, 3.050E+02, 2.161E+02
 1.005E+03, 1.145E+02, 3.050E+02, 2.175E+02
 1.020E+03, 1.165E+02, 3.050E+02, 2.188E+02
 1.035E+03, 1.185E+02, 3.050E+02, 2.202E+02
 1.050E+03, 1.205E+02, 3.050E+02, 2.215E+02
 1.065E+03, 1.225E+02, 3.050E+02, 2.227E+02
 1.080E+03, 1.245E+02, 3.050E+02, 2.240E+02
 1.095E+03, 1.265E+02, 3.050E+02, 2.252E+02
 1.110E+03, 1.285E+02, 3.050E+02, 2.263E+02
 1.125E+03, 1.305E+02, 3.050E+02, 2.275E+02
 1.140E+03, 1.324E+02, 3.050E+02, 2.286E+02
 1.155E+03, 1.344E+02, 3.050E+02, 2.297E+02
 1.170E+03, 1.364E+02, 3.050E+02, 2.308E+02
 1.185E+03, 1.383E+02, 3.050E+02, 2.318E+02
 1.200E+03, 1.402E+02, 3.050E+02, 2.327E+02
 1.215E+03, 1.421E+02, 3.050E+02, 2.337E+02
 1.230E+03, 1.440E+02, 3.050E+02, 2.347E+02
 1.245E+03, 1.459E+02, 3.050E+02, 2.356E+02
 1.260E+03, 1.478E+02, 3.050E+02, 2.366E+02
 1.275E+03, 1.497E+02, 3.050E+02, 2.375E+02
 1.290E+03, 1.516E+02, 3.050E+02, 2.383E+02
 1.305E+03, 1.535E+02, 3.050E+02, 2.392E+02
 1.320E+03, 1.553E+02, 3.050E+02, 2.400E+02
 1.335E+03, 1.571E+02, 3.050E+02, 2.408E+02
 1.350E+03, 1.589E+02, 3.050E+02, 2.416E+02
 1.365E+03, 1.607E+02, 3.050E+02, 2.424E+02
 1.380E+03, 1.625E+02, 3.050E+02, 2.432E+02
 1.395E+03, 1.643E+02, 3.050E+02, 2.439E+02
 1.410E+03, 1.661E+02, 3.050E+02, 2.446E+02
 1.425E+03, 1.678E+02, 3.050E+02, 2.454E+02
 1.440E+03, 1.695E+02, 3.050E+02, 2.461E+02
 1.455E+03, 1.713E+02, 3.050E+02, 2.468E+02
 1.470E+03, 1.730E+02, 3.050E+02, 2.474E+02
 1.485E+03, 1.746E+02, 3.050E+02, 2.481E+02
 1.500E+03, 1.763E+02, 3.050E+02, 2.487E+02
 1.515E+03, 1.779E+02, 3.050E+02, 2.493E+02
 1.530E+03, 1.795E+02, 3.050E+02, 2.499E+02
 1.545E+03, 1.811E+02, 3.050E+02, 2.505E+02
 1.560E+03, 1.826E+02, 3.050E+02, 2.510E+02
 1.575E+03, 1.842E+02, 3.050E+02, 2.516E+02
 1.590E+03, 1.857E+02, 3.050E+02, 2.521E+02
 1.605E+03, 1.872E+02, 3.050E+02, 2.526E+02
 1.620E+03, 1.887E+02, 3.050E+02, 2.531E+02
 1.635E+03, 1.901E+02, 3.050E+02, 2.536E+02
 1.650E+03, 1.916E+02, 3.050E+02, 2.541E+02
 1.665E+03, 1.930E+02, 3.050E+02, 2.546E+02
 1.680E+03, 1.945E+02, 3.050E+02, 2.550E+02
 1.695E+03, 1.958E+02, 3.050E+02, 2.555E+02
 1.710E+03, 1.972E+02, 3.050E+02, 2.560E+02
 1.725E+03, 1.986E+02, 3.050E+02, 2.564E+02
 1.740E+03, 2.000E+02, 3.050E+02, 2.569E+02
 1.755E+03, 2.013E+02, 3.050E+02, 2.573E+02
 1.770E+03, 2.026E+02, 3.050E+02, 2.577E+02
 1.785E+03, 2.039E+02, 3.050E+02, 2.581E+02
 1.800E+03, 2.052E+02, 3.050E+02, 2.585E+02
 1.815E+03, 2.064E+02, 3.050E+02, 2.589E+02
 1.830E+03, 2.077E+02, 3.050E+02, 2.592E+02
 1.845E+03, 2.089E+02, 3.050E+02, 2.596E+02
 1.860E+03, 2.101E+02, 3.050E+02, 2.600E+02
 1.875E+03, 2.112E+02, 3.050E+02, 2.604E+02
 1.890E+03, 2.123E+02, 3.049E+02, 2.607E+02
 1.905E+03, 2.134E+02, 3.021E+02, 2.609E+02
 1.920E+03, 2.145E+02, 2.980E+02, 2.610E+02
 1.935E+03, 2.155E+02, 2.939E+02, 2.610E+02
 1.950E+03, 2.166E+02, 2.898E+02, 2.609E+02
 1.965E+03, 2.176E+02, 2.857E+02, 2.607E+02
 1.980E+03, 2.186E+02, 2.816E+02, 2.603E+02
 1.995E+03, 2.195E+02, 2.774E+02, 2.599E+02
 2.010E+03, 2.204E+02, 2.733E+02, 2.594E+02
 2.025E+03, 2.213E+02, 2.692E+02, 2.588E+02
 2.040E+03, 2.221E+02, 2.651E+02, 2.581E+02
 2.055E+03, 2.229E+02, 2.610E+02, 2.573E+02
 2.070E+03, 2.236E+02, 2.569E+02, 2.564E+02
 2.085E+03, 2.243E+02, 2.528E+02, 2.555E+02
 2.100E+03, 2.249E+02, 2.487E+02, 2.545E+02
 2.115E+03, 2.255E+02, 2.446E+02, 2.535E+02
 2.130E+03, 2.261E+02, 2.405E+02, 2.524E+02
 2.145E+03, 2.266E+02, 2.363E+02, 2.512E+02
 2.160E+03, 2.271E+02, 2.322E+02, 2.500E+02
 2.175E+03, 2.275E+02, 2.281E+02, 2.487E+02
 2.190E+03, 2.279E+02, 2.240E+02, 2.473E+02
 2.205E+03, 2.281E+02, 2.199E+02, 2.459E+02
 2.220E+03, 2.283E+02, 2.158E+02, 2.444E+02
 2.235E+03, 2.285E+02, 2.117E+02, 2.430E+02
 2.250E+03, 2.287E+02, 2.076E+02, 2.415E+02
 2.265E+03, 2.289E+02, 2.035E+02, 2.400E+02
 2.280E+03, 2.290E+02, 1.994E+02, 2.385E+02
 2.295E+03, 2.291E+02, 1.952E+02, 2.369E+02
 2.310E+03, 2.291E+02, 1.911E+02, 2.353E+02
 2.325E+03, 2.291E+02, 1.870E+02, 2.337E+02
 2.340E+03, 2.291E+02, 1.829E+02, 2.321E+02
 2.355E+03, 2.290E+02, 1.788E+02, 2.305E+02
 2.370E+03, 2.289E+02, 1.747E+02, 2.288E+02
 2.385E+03, 2.288E+02, 1.706E+02, 2.271E+02
 2.400E+03, 2.285E+02, 1.680E+02, 2.254E+02
 2.415E+03, 2.283E+02, 1.680E+02, 2.238E+02
 2.430E+03, 2.281E+02, 1.680E+02, 2.222E+02
 2.445E+03, 2.278E+02, 1.680E+02, 2.206E+02
 2.460E+03, 2.274E+02, 1.680E+02, 2.190E+02
 2.475E+03, 2.270E+02, 1.680E+02, 2.175E+02
 2.490E+03, 2.266E+02, 1.680E+02, 2.161E+02
 2.505E+03, 2.262E+02, 1.680E+02, 2.147E+02
 2.520E+03, 2.258E+02, 1.680E+02, 2.133E+02
 2.535E+03, 2.254E+02, 1.680E+02, 2.120E+02
 2.550E+03, 2.249E+02, 1.680E+02, 2.107E+02
 2.565E+03, 2.245E+02, 1.680E+02, 2.094E+02
 2.580E+03, 2.240E+02, 1.680E+02, 2.082E+02
 2.595E+03, 2.235E+02, 1.680E+02, 2.070E+02
 2.610E+03, 2.230E+02, 1.680E+02, 2.058E+02
 2.625E+03, 2.224E+02, 1.680E+02, 2.046E+02
 2.640E+03, 2.218E+02, 1.680E+02, 2.035E+02
 2.655E+03, 2.212E+02, 1.680E+02, 2.024E+02
 2.670E+03, 2.206E+02, 1.680E+02, 2.013E+02
 2.685E+03, 2.200E+02, 1.680E+02, 2.002E+02
 2.700E+03, 2.195E+02, 1.680E+02, 1.992E+02
 2.715E+03, 2.189E+02, 1.680E+02, 1.983E+02
 2.730E+03, 2.183E+02, 1.680E+02, 1.973E+02
 2.745E+03, 2.177E+02, 1.680E+02, 1.963E+02
 2.760E+03, 2.171E+02, 1.680E+02, 1.954E+02
 2.775E+03, 2.165E+02, 1.680E+02, 1.945E+02
 2.790E+03, 2.160E+02, 1.680E+02, 1.937E+02
 2.805E+03, 2.154E+02, 1.680E+02, 1.928E+02
 2.820E+03, 2.149E+02, 1.680E+02, 1.920E+02
 2.835E+03, 2.144E+02, 1.680E+02, 1.912E+02
 2.850E+03, 2.137E+02, 1.680E+02, 1.904E+02
 2.865E+03, 2.131E+02, 1.680E+02, 1.896E+02
 2.880E+03, 2.125E+02, 1.680E+02, 1.889E+02
 2.895E+03, 2.119E+02, 1.680E+02, 1.881E+02
 2.910E+03, 2.113E+02, 1.680E+02, 1.874E+02
 2.925E+03, 2.107E+02, 1.680E+02, 1.867E+02
 2.940E+03, 2.101E+02, 1.680E+02, 1.859E+02
 2.955E+03, 2.095E+02, 1.680E+02, 1.853E+02
 2.970E+03, 2.090E+02, 1.680E+02, 1.846E+02
 2.985E+03, 2.083E+02, 1.680E+02, 1.839E+02
 3.000E+03, 2.077E+02, 1.680E+02, 1.833E+02
 3.015E+03, 2.071E+02, 1.680E+02, 1.827E+02
 3.030E+03, 2.066E+02, 1.680E+02, 1.821E+02
 3.045E+03, 2.060E+02, 1.680E+02, 1.815E+02
 3.060E+03, 2.054E+02, 1.680E+02, 1.809E+02
 3.075E+03, 2.048E+02, 1.680E+02, 1.803E+02
 3.090E+03, 2.042E+02, 1.680E+02, 1.797E+02
 3.105E+03, 2.035E+02, 1.680E+02, 1.792E+02
 3.120E+03, 2.029E+02, 1.680E+02, 1.786E+02
 3.135E+03, 2.024E+02, 1.680E+02, 1.781E+02
 3.150E+03, 2.018E+02, 1.680E+02, 1.776E+02
 3.165E+03, 2.013E+02, 1.680E+02, 1.771E+02
 3.180E+03, 2.008E+02, 1.680E+02, 1.766E+02
 3.195E+03, 2.001E+02, 1.680E+02, 1.761E+02
 3.210E+03, 1.996E+02, 1.680E+02, 1.756E+02
 3.225E+03, 1.991E+02, 1.680E+02, 1.752E+02
 3.240E+03, 1.985E+02, 1.680E+02, 1.747E+02
 3.255E+03, 1.979E+02, 1.680E+02, 1.742E+02
 3.270E+03, 1.973E+02, 1.680E+02, 1.737E+02
 3.285E+03, 1.967E+02, 1.680E+02, 1.733E+02
 3.300E+03, 1.961E+02, 1.680E+02, 1.728E+02
 3.315E+03, 1.955E+02, 1.680E+02, 1.724E+02
 3.330E+03, 1.949E+02, 1.680E+02, 1.720E+02
 3.345E+03, 1.945E+02, 1.680E+02, 1.716E+02
 3.360E+03, 1.940E+02, 1.680E+02, 1.712E+02
 3.375E+03, 1.934E+02, 1.680E+02, 1.708E+02
 3.390E+03, 1.929E+02, 1.680E+02, 1.705E+02
 3.405E+03, 1.924E+02, 1.680E+02, 1.701E+02
 3.420E+03, 1.919E+02, 1.680E+02, 1.697E+02
 3.435E+03, 1.914E+02, 1.680E+02, 1.694E+02
 3.450E+03, 1.909E+02, 1.680E+02, 1.690E+02
 3.465E+03, 1.905E+02, 1.680E+02, 1.687E+02
 3.480E+03, 1.900E+02, 1.680E+02, 1.684E+02
 3.495E+03, 1.895E+02, 1.680E+02, 1.680E+02
 3.510E+03, 1.889E+02, 1.680E+02, 1.677E+02
 3.525E+03, 1.885E+02, 1.680E+02, 1.674E+02
 3.540E+03, 1.881E+02, 1.680E+02, 1.671E+02
 3.555E+03, 1.877E+02, 1.680E+02, 1.668E+02
 3.570E+03, 1.872E+02, 1.680E+02, 1.665E+02
 3.585E+03, 1.867E+02, 1.680E+02, 1.662E+02
 3.600E+03, 1.863E+02, 1.680E+02, 1.659E+02
