s,C,C
Time,"Cable Temp","Shroud Temp"
 0.000E+00, 2.400E+01, 2.400E+01
 1.501E+01, 2.401E+01, 7.343E+01
 3.001E+01, 2.433E+01, 1.709E+02
 4.500E+01, 2.594E+01, 2.685E+02
 6.002E+01, 3.019E+01, 3.662E+02
 7.502E+01, 3.884E+01, 4.585E+02
 9.002E+01, 5.338E+01, 4.800E+02
 1.050E+02, 7.121E+01, 4.800E+02
 1.200E+02, 8.905E+01, 4.800E+02
 1.350E+02, 1.058E+02, 4.800E+02
 1.500E+02, 1.214E+02, 4.800E+02
 1.650E+02, 1.360E+02, 4.800E+02
 1.800E+02, 1.495E+02, 4.800E+02
 1.950E+02, 1.623E+02, 4.800E+02
 2.100E+02, 1.743E+02, 4.800E+02
 2.250E+02, 1.855E+02, 4.800E+02
 2.400E+02, 1.961E+02, 4.800E+02
 2.550E+02, 2.063E+02, 4.800E+02
 2.700E+02, 2.158E+02, 4.800E+02
 2.850E+02, 2.250E+02, 4.800E+02
 3.000E+02, 2.337E+02, 4.800E+02
 3.150E+02, 2.420E+02, 4.800E+02
 3.300E+02, 2.500E+02, 4.800E+02
 3.450E+02, 2.576E+02, 4.800E+02
 3.600E+02, 2.650E+02, 4.800E+02
 3.750E+02, 2.720E+02, 4.800E+02
 3.900E+02, 2.788E+02, 4.800E+02
 4.050E+02, 2.853E+02, 4.800E+02
 4.200E+02, 2.915E+02, 4.800E+02
 4.350E+02, 2.976E+02, 4.800E+02
 4.500E+02, 3.034E+02, 4.800E+02
 4.650E+02, 3.090E+02, 4.800E+02
 4.800E+02, 3.143E+02, 4.800E+02
 4.950E+02, 3.195E+02, 4.800E+02
 5.100E+02, 3.244E+02, 4.800E+02
 5.250E+02, 3.292E+02, 4.800E+02
 5.400E+02, 3.338E+02, 4.800E+02
 5.550E+02, 3.383E+02, 4.800E+02
 5.700E+02, 3.426E+02, 4.800E+02
 5.850E+02, 3.467E+02, 4.800E+02
 6.000E+02, 3.507E+02, 4.800E+02
 6.150E+02, 3.545E+02, 4.800E+02
 6.300E+02, 3.581E+02, 4.800E+02
 6.450E+02, 3.617E+02, 4.800E+02
 6.600E+02, 3.651E+02, 4.800E+02
 6.750E+02, 3.683E+02, 4.800E+02
 6.900E+02, 3.714E+02, 4.800E+02
 7.050E+02, 3.744E+02, 4.800E+02
 7.200E+02, 3.774E+02, 4.800E+02
 7.350E+02, 3.802E+02, 4.800E+02
 7.500E+02, 3.829E+02, 4.800E+02
 7.650E+02, 3.855E+02, 4.800E+02
 7.800E+02, 3.880E+02, 4.800E+02
 7.950E+02, 3.903E+02, 4.772E+02
 8.100E+02, 3.925E+02, 4.715E+02
 8.250E+02, 3.941E+02, 4.659E+02
 8.400E+02, 3.953E+02, 4.602E+02
 8.550E+02, 3.961E+02, 4.546E+02
 8.700E+02, 3.966E+02, 4.489E+02
 8.850E+02, 3.967E+02, 4.433E+02
 9.000E+02, 3.966E+02, 4.376E+02
 9.150E+02, 3.962E+02, 4.320E+02
 9.300E+02, 3.956E+02, 4.263E+02
 9.450E+02, 3.948E+02, 4.207E+02
 9.600E+02, 3.938E+02, 4.150E+02
 9.750E+02, 3.927E+02, 4.094E+02
 9.900E+02, 3.913E+02, 4.037E+02
 1.005E+03, 3.899E+02, 3.981E+02
 1.020E+03, 3.883E+02, 3.924E+02
 1.035E+03, 3.866E+02, 3.868E+02
 1.050E+03, 3.847E+02, 3.811E+02
 1.065E+03, 3.828E+02, 3.755E+02
 1.080E+03, 3.807E+02, 3.698E+02
 1.095E+03, 3.786E+02, 3.642E+02
 1.110E+03, 3.764E+02, 3.585E+02
 1.125E+03, 3.742E+02, 3.528E+02
 1.140E+03, 3.718E+02, 3.472E+02
 1.155E+03, 3.694E+02, 3.415E+02
 1.170E+03, 3.669E+02, 3.359E+02
 1.185E+03, 3.644E+02, 3.302E+02
 1.200E+03, 3.618E+02, 3.246E+02
 1.215E+03, 3.591E+02, 3.189E+02
 1.230E+03, 3.564E+02, 3.133E+02
 1.245E+03, 3.537E+02, 3.077E+02
 1.260E+03, 3.509E+02, 3.032E+02
 1.275E+03, 3.481E+02, 2.990E+02
 1.290E+03, 3.454E+02, 2.949E+02
 1.305E+03, 3.426E+02, 2.907E+02
 1.320E+03, 3.399E+02, 2.865E+02
 1.335E+03, 3.372E+02, 2.823E+02
 1.350E+03, 3.345E+02, 2.781E+02
 1.365E+03, 3.318E+02, 2.740E+02
 1.380E+03, 3.290E+02, 2.698E+02
 1.395E+03, 3.263E+02, 2.656E+02
 1.410E+03, 3.236E+02, 2.614E+02
 1.425E+03, 3.209E+02, 2.572E+02
 1.440E+03, 3.182E+02, 2.531E+02
 1.455E+03, 3.154E+02, 2.489E+02
 1.470E+03, 3.127E+02, 2.447E+02
 1.485E+03, 3.100E+02, 2.405E+02
 1.500E+03, 3.073E+02, 2.363E+02
 1.515E+03, 3.046E+02, 2.322E+02
 1.530E+03, 3.019E+02, 2.280E+02
 1.545E+03, 2.993E+02, 2.238E+02
 1.560E+03, 2.966E+02, 2.196E+02
 1.575E+03, 2.939E+02, 2.154E+02
 1.590E+03, 2.912E+02, 2.113E+02
 1.605E+03, 2.885E+02, 2.073E+02
 1.620E+03, 2.859E+02, 2.064E+02
 1.635E+03, 2.833E+02, 2.064E+02
 1.650E+03, 2.808E+02, 2.064E+02
 1.665E+03, 2.784E+02, 2.064E+02
 1.680E+03, 2.761E+02, 2.064E+02
 1.695E+03, 2.738E+02, 2.064E+02
 1.710E+03, 2.717E+02, 2.064E+02
 1.725E+03, 2.696E+02, 2.064E+02
 1.740E+03, 2.676E+02, 2.064E+02
 1.755E+03, 2.657E+02, 2.064E+02
 1.770E+03, 2.638E+02, 2.064E+02
 1.785E+03, 2.620E+02, 2.064E+02
 1.800E+03, 2.602E+02, 2.064E+02
