s,C,C,C
Time,"Cable Temp","Shroud Temp","Conduit"
 0.000E+00, 3.100E+01, 3.100E+01, 3.100E+01
 1.508E+01, 3.100E+01, 6.897E+01, 3.106E+01
 3.001E+01, 3.100E+01, 1.435E+02, 3.163E+01
 4.501E+01, 3.105E+01, 2.180E+02, 3.328E+01
 6.003E+01, 3.111E+01, 2.885E+02, 3.653E+01
 7.503E+01, 3.123E+01, 3.050E+02, 4.110E+01
 9.003E+01, 3.144E+01, 3.050E+02, 4.573E+01
 1.050E+02, 3.174E+01, 3.050E+02, 5.027E+01
 1.200E+02, 3.201E+01, 3.050E+02, 5.477E+01
 1.350E+02, 3.235E+01, 3.050E+02, 5.921E+01
 1.500E+02, 3.276E+01, 3.050E+02, 6.357E+01
 1.650E+02, 3.332E+01, 3.050E+02, 6.785E+01
 1.800E+02, 3.395E+01, 3.050E+02, 7.203E+01
 1.951E+02, 3.467E+01, 3.050E+02, 7.616E+01
 2.100E+02, 3.549E+01, 3.050E+02, 8.023E+01
 2.250E+02, 3.618E+01, 3.050E+02, 8.425E+01
 2.401E+02, 3.690E+01, 3.050E+02, 8.819E+01
 2.550E+02, 3.770E+01, 3.050E+02, 9.205E+01
 2.700E+02, 3.855E+01, 3.050E+02, 9.591E+01
 2.851E+02, 3.947E+01, 3.050E+02, 9.970E+01
 3.000E+02, 4.032E+01, 3.050E+02, 1.034E+02
 3.150E+02, 4.119E+01, 3.050E+02, 1.070E+02
 3.300E+02, 4.207E+01, 3.050E+02, 1.106E+02
 3.450E+02, 4.300E+01, 3.050E+02, 1.141E+02
 3.600E+02, 4.403E+01, 3.050E+02, 1.175E+02
 3.750E+02, 4.518E+01, 3.050E+02, 1.209E+02
 3.900E+02, 4.629E+01, 3.050E+02, 1.242E+02
 4.050E+02, 4.747E+01, 3.050E+02, 1.274E+02
 4.200E+02, 4.875E+01, 3.050E+02, 1.306E+02
 4.350E+02, 5.007E+01, 3.050E+02, 1.337E+02
 4.500E+02, 5.131E+01, 3.050E+02, 1.368E+02
 4.650E+02, 5.260E+01, 3.050E+02, 1.398E+02
 4.800E+02, 5.387E+01, 3.050E+02, 1.428E+02
 4.950E+02, 5.516E+01, 3.050E+02, 1.457E+02
 5.100E+02, 5.656E+01, 3.050E+02, 1.485E+02
 5.250E+02, 5.795E+01, 3.050E+02, 1.513E+02
 5.401E+02, 5.942E+01, 3.050E+02, 1.541E+02
 5.550E+02, 6.091E+01, 3.050E+02, 1.568E+02
 5.701E+02, 6.238E+01, 3.050E+02, 1.594E+02
 5.850E+02, 6.390E+01, 3.050E+02, 1.620E+02
 6.000E+02, 6.549E+01, 3.050E+02, 1.646E+02
 6.150E+02, 6.717E+01, 3.050E+02, 1.670E+02
 6.300E+02, 6.889E+01, 3.050E+02, 1.695E+02
 6.450E+02, 7.055E+01, 3.050E+02, 1.719E+02
 6.600E+02, 7.224E+01, 3.050E+02, 1.742E+02
 6.750E+02, 7.400E+01, 3.050E+02, 1.765E+02
 6.901E+02, 7.575E+01, 3.050E+02, 1.788E+02
 7.050E+02, 7.746E+01, 3.050E+02, 1.810E+02
 7.200E+02, 7.919E+01, 3.050E+02, 1.832E+02
 7.350E+02, 8.096E+01, 3.050E+02, 1.853E+02
 7.500E+02, 8.278E+01, 3.050E+02, 1.874E+02
 7.650E+02, 8.460E+01, 3.050E+02, 1.895E+02
 7.800E+02, 8.648E+01, 3.050E+02, 1.914E+02
 7.950E+02, 8.837E+01, 3.050E+02, 1.934E+02
 8.100E+02, 9.025E+01, 3.050E+02, 1.953E+02
 8.250E+02, 9.213E+01, 3.050E+02, 1.972E+02
 8.400E+02, 9.403E+01, 3.050E+02, 1.991E+02
 8.550E+02, 9.601E+01, 3.050E+02, 2.008E+02
 8.700E+02, 9.807E+01, 3.050E+02, 2.025E+02
 8.850E+02, 1.001E+02, 3.050E+02, 2.042E+02
 9.001E+02, 1.021E+02, 3.050E+02, 2.059E+02
 9.150E+02, 1.041E+02, 3.050E+02, 2.075E+02
 9.300E+02, 1.060E+02, 3.050E+02, 2.091E+02
 9.450E+02, 1.080E+02, 3.050E+02, 2.107E+02
 9.600E+02, 1.100E+02, 3.050E+02, 2.122E+02
 9.750E+02, 1.119E+02, 3.050E+02, 2.138E+02
 9.900E+02, 1.139E+02, 3.050E+02, 2.151E+02
 1.005E+03, 1.160E+02, 3.050E+02, 2.165E+02
 1.020E+03, 1.180E+02, 3.050E+02, 2.178E+02
 1.035E+03, 1.201E+02, 3.050E+02, 2.192E+02
 1.050E+03, 1.220E+02, 3.050E+02, 2.205E+02
 1.065E+03, 1.240E+02, 3.050E+02, 2.218E+02
 1.080E+03, 1.260E+02, 3.050E+02, 2.230E+02
 1.095E+03, 1.280E+02, 3.050E+02, 2.243E+02
 1.110E+03, 1.299E+02, 3.050E+02, 2.255E+02
 1.125E+03, 1.319E+02, 3.050E+02, 2.266E+02
 1.140E+03, 1.338E+02, 3.050E+02, 2.278E+02
 1.155E+03, 1.358E+02, 3.050E+02, 2.289E+02
 1.170E+03, 1.378E+02, 3.050E+02, 2.300E+02
 1.185E+03, 1.397E+02, 3.050E+02, 2.311E+02
 1.200E+03, 1.417E+02, 3.050E+02, 2.321E+02
 1.215E+03, 1.436E+02, 3.050E+02, 2.331E+02
 1.230E+03, 1.455E+02, 3.050E+02, 2.341E+02
 1.245E+03, 1.474E+02, 3.050E+02, 2.351E+02
 1.260E+03, 1.493E+02, 3.050E+02, 2.361E+02
 1.275E+03, 1.512E+02, 3.050E+02, 2.370E+02
 1.290E+03, 1.530E+02, 3.050E+02, 2.378E+02
 1.305E+03, 1.549E+02, 3.050E+02, 2.386E+02
 1.320E+03, 1.567E+02, 3.050E+02, 2.395E+02
 1.335E+03, 1.585E+02, 3.050E+02, 2.403E+02
 1.350E+03, 1.603E+02, 3.050E+02, 2.411E+02
 1.365E+03, 1.621E+02, 3.050E+02, 2.419E+02
 1.380E+03, 1.639E+02, 3.050E+02, 2.426E+02
 1.395E+03, 1.656E+02, 3.050E+02, 2.433E+02
 1.410E+03, 1.673E+02, 3.050E+02, 2.441E+02
 1.425E+03, 1.690E+02, 3.050E+02, 2.448E+02
 1.440E+03, 1.707E+02, 3.050E+02, 2.455E+02
 1.455E+03, 1.724E+02, 3.050E+02, 2.461E+02
 1.470E+03, 1.741E+02, 3.050E+02, 2.468E+02
 1.485E+03, 1.757E+02, 3.050E+02, 2.474E+02
 1.500E+03, 1.774E+02, 3.050E+02, 2.480E+02
 1.515E+03, 1.790E+02, 3.050E+02, 2.485E+02
 1.530E+03, 1.806E+02, 3.050E+02, 2.491E+02
 1.545E+03, 1.822E+02, 3.050E+02, 2.497E+02
 1.560E+03, 1.837E+02, 3.050E+02, 2.501E+02
 1.575E+03, 1.852E+02, 3.050E+02, 2.507E+02
 1.590E+03, 1.867E+02, 3.050E+02, 2.513E+02
 1.605E+03, 1.882E+02, 3.050E+02, 2.518E+02
 1.620E+03, 1.896E+02, 3.050E+02, 2.523E+02
 1.635E+03, 1.911E+02, 3.050E+02, 2.528E+02
 1.650E+03, 1.925E+02, 3.050E+02, 2.533E+02
 1.665E+03, 1.938E+02, 3.050E+02, 2.537E+02
 1.680E+03, 1.952E+02, 3.050E+02, 2.542E+02
 1.695E+03, 1.966E+02, 3.050E+02, 2.546E+02
 1.710E+03, 1.979E+02, 3.050E+02, 2.550E+02
 1.725E+03, 1.993E+02, 3.050E+02, 2.555E+02
 1.740E+03, 2.007E+02, 3.050E+02, 2.560E+02
 1.755E+03, 2.020E+02, 3.050E+02, 2.564E+02
 1.770E+03, 2.033E+02, 3.050E+02, 2.568E+02
 1.785E+03, 2.045E+02, 3.050E+02, 2.572E+02
 1.800E+03, 2.058E+02, 3.050E+02, 2.576E+02
 1.815E+03, 2.070E+02, 3.050E+02, 2.581E+02
 1.830E+03, 2.082E+02, 3.050E+02, 2.585E+02
 1.845E+03, 2.094E+02, 3.050E+02, 2.587E+02
 1.860E+03, 2.105E+02, 3.050E+02, 2.591E+02
 1.875E+03, 2.117E+02, 3.050E+02, 2.595E+02
 1.890E+03, 2.128E+02, 3.049E+02, 2.598E+02
 1.905E+03, 2.139E+02, 3.021E+02, 2.601E+02
 1.920E+03, 2.150E+02, 2.980E+02, 2.604E+02
 1.935E+03, 2.161E+02, 2.939E+02, 2.603E+02
 1.950E+03, 2.170E+02, 2.898E+02, 2.602E+02
 1.965E+03, 2.180E+02, 2.857E+02, 2.600E+02
 1.980E+03, 2.190E+02, 2.816E+02, 2.598E+02
 1.995E+03, 2.200E+02, 2.774E+02, 2.594E+02
 2.010E+03, 2.209E+02, 2.733E+02, 2.589E+02
 2.025E+03, 2.218E+02, 2.692E+02, 2.582E+02
 2.040E+03, 2.225E+02, 2.651E+02, 2.574E+02
 2.055E+03, 2.231E+02, 2.610E+02, 2.566E+02
 2.070E+03, 2.238E+02, 2.569E+02, 2.558E+02
 2.085E+03, 2.243E+02, 2.528E+02, 2.548E+02
 2.100E+03, 2.248E+02, 2.487E+02, 2.537E+02
 2.115E+03, 2.254E+02, 2.446E+02, 2.527E+02
 2.130E+03, 2.259E+02, 2.405E+02, 2.516E+02
 2.145E+03, 2.264E+02, 2.363E+02, 2.504E+02
 2.160E+03, 2.269E+02, 2.322E+02, 2.492E+02
 2.175E+03, 2.273E+02, 2.281E+02, 2.480E+02
 2.190E+03, 2.275E+02, 2.240E+02, 2.466E+02
 2.205E+03, 2.277E+02, 2.199E+02, 2.452E+02
 2.220E+03, 2.280E+02, 2.158E+02, 2.438E+02
 2.235E+03, 2.282E+02, 2.117E+02, 2.424E+02
 2.250E+03, 2.282E+02, 2.076E+02, 2.408E+02
 2.265E+03, 2.283E+02, 2.035E+02, 2.393E+02
 2.280E+03, 2.283E+02, 1.994E+02, 2.377E+02
 2.295E+03, 2.283E+02, 1.952E+02, 2.362E+02
 2.310E+03, 2.284E+02, 1.911E+02, 2.346E+02
 2.325E+03, 2.283E+02, 1.870E+02, 2.330E+02
 2.340E+03, 2.282E+02, 1.829E+02, 2.313E+02
 2.355E+03, 2.281E+02, 1.788E+02, 2.296E+02
 2.370E+03, 2.279E+02, 1.747E+02, 2.279E+02
 2.385E+03, 2.276E+02, 1.706E+02, 2.262E+02
 2.400E+03, 2.272E+02, 1.680E+02, 2.245E+02
 2.415E+03, 2.269E+02, 1.680E+02, 2.227E+02
 2.430E+03, 2.265E+02, 1.680E+02, 2.211E+02
 2.445E+03, 2.262E+02, 1.680E+02, 2.195E+02
 2.460E+03, 2.259E+02, 1.680E+02, 2.181E+02
 2.475E+03, 2.256E+02, 1.680E+02, 2.165E+02
 2.490E+03, 2.251E+02, 1.680E+02, 2.150E+02
 2.505E+03, 2.245E+02, 1.680E+02, 2.136E+02
 2.520E+03, 2.240E+02, 1.680E+02, 2.121E+02
 2.535E+03, 2.235E+02, 1.680E+02, 2.107E+02
 2.550E+03, 2.228E+02, 1.680E+02, 2.094E+02
 2.565E+03, 2.223E+02, 1.680E+02, 2.081E+02
 2.580E+03, 2.216E+02, 1.680E+02, 2.068E+02
 2.595E+03, 2.210E+02, 1.680E+02, 2.056E+02
 2.610E+03, 2.205E+02, 1.680E+02, 2.044E+02
 2.625E+03, 2.200E+02, 1.680E+02, 2.033E+02
 2.640E+03, 2.194E+02, 1.680E+02, 2.021E+02
 2.655E+03, 2.186E+02, 1.680E+02, 2.010E+02
 2.670E+03, 2.179E+02, 1.680E+02, 1.999E+02
 2.685E+03, 2.172E+02, 1.680E+02, 1.988E+02
 2.700E+03, 2.164E+02, 1.680E+02, 1.977E+02
 2.715E+03, 2.158E+02, 1.680E+02, 1.967E+02
 2.730E+03, 2.152E+02, 1.680E+02, 1.958E+02
 2.745E+03, 2.146E+02, 1.680E+02, 1.949E+02
 2.760E+03, 2.142E+02, 1.680E+02, 1.940E+02
 2.775E+03, 2.135E+02, 1.680E+02, 1.931E+02
 2.790E+03, 2.128E+02, 1.680E+02, 1.921E+02
 2.805E+03, 2.119E+02, 1.680E+02, 1.912E+02
 2.820E+03, 2.111E+02, 1.680E+02, 1.904E+02
 2.835E+03, 2.105E+02, 1.680E+02, 1.895E+02
 2.850E+03, 2.099E+02, 1.680E+02, 1.888E+02
 2.865E+03, 2.095E+02, 1.680E+02, 1.881E+02
 2.880E+03, 2.090E+02, 1.680E+02, 1.873E+02
 2.895E+03, 2.084E+02, 1.680E+02, 1.865E+02
 2.910E+03, 2.077E+02, 1.680E+02, 1.858E+02
 2.925E+03, 2.068E+02, 1.680E+02, 1.850E+02
 2.940E+03, 2.060E+02, 1.680E+02, 1.843E+02
 2.955E+03, 2.055E+02, 1.680E+02, 1.836E+02
 2.970E+03, 2.049E+02, 1.680E+02, 1.830E+02
 2.985E+03, 2.045E+02, 1.680E+02, 1.824E+02
 3.000E+03, 2.039E+02, 1.680E+02, 1.818E+02
 3.015E+03, 2.033E+02, 1.680E+02, 1.811E+02
 3.030E+03, 2.025E+02, 1.680E+02, 1.805E+02
 3.045E+03, 2.020E+02, 1.680E+02, 1.799E+02
 3.060E+03, 2.014E+02, 1.680E+02, 1.794E+02
 3.075E+03, 2.009E+02, 1.680E+02, 1.789E+02
 3.090E+03, 2.005E+02, 1.680E+02, 1.784E+02
 3.105E+03, 2.001E+02, 1.680E+02, 1.779E+02
 3.120E+03, 1.995E+02, 1.680E+02, 1.773E+02
 3.135E+03, 1.988E+02, 1.680E+02, 1.768E+02
 3.150E+03, 1.981E+02, 1.680E+02, 1.762E+02
 3.165E+03, 1.973E+02, 1.680E+02, 1.756E+02
 3.180E+03, 1.965E+02, 1.680E+02, 1.751E+02
 3.195E+03, 1.957E+02, 1.680E+02, 1.745E+02
 3.210E+03, 1.951E+02, 1.680E+02, 1.740E+02
 3.225E+03, 1.945E+02, 1.680E+02, 1.735E+02
 3.240E+03, 1.936E+02, 1.680E+02, 1.730E+02
 3.255E+03, 1.930E+02, 1.680E+02, 1.725E+02
 3.270E+03, 1.926E+02, 1.680E+02, 1.721E+02
 3.285E+03, 1.920E+02, 1.680E+02, 1.716E+02
 3.300E+03, 1.915E+02, 1.680E+02, 1.712E+02
 3.315E+03, 1.909E+02, 1.680E+02, 1.707E+02
 3.330E+03, 1.903E+02, 1.680E+02, 1.704E+02
 3.345E+03, 1.899E+02, 1.680E+02, 1.700E+02
 3.360E+03, 1.895E+02, 1.680E+02, 1.697E+02
 3.375E+03, 1.891E+02, 1.680E+02, 1.693E+02
 3.390E+03, 1.886E+02, 1.680E+02, 1.689E+02
 3.405E+03, 1.882E+02, 1.680E+02, 1.686E+02
 3.420E+03, 1.877E+02, 1.680E+02, 1.682E+02
 3.435E+03, 1.872E+02, 1.680E+02, 1.679E+02
 3.450E+03, 1.867E+02, 1.680E+02, 1.675E+02
 3.465E+03, 1.862E+02, 1.680E+02, 1.672E+02
 3.480E+03, 1.859E+02, 1.680E+02, 1.669E+02
 3.495E+03, 1.855E+02, 1.680E+02, 1.666E+02
 3.510E+03, 1.850E+02, 1.680E+02, 1.663E+02
 3.525E+03, 1.845E+02, 1.680E+02, 1.660E+02
 3.540E+03, 1.840E+02, 1.680E+02, 1.657E+02
 3.555E+03, 1.835E+02, 1.680E+02, 1.654E+02
 3.570E+03, 1.831E+02, 1.680E+02, 1.650E+02
 3.585E+03, 1.826E+02, 1.680E+02, 1.648E+02
 3.600E+03, 1.822E+02, 1.680E+02, 1.645E+02
