s,C,C
Time,"Cable Temp","Shroud Temp"
 0.0000000E+000, 2.4000000E+001, 2.4000000E+001
 1.0025171E+001, 2.4040926E+001, 5.6502392E+001
 2.0017799E+001, 2.4633724E+001, 1.2092455E+002
 3.0011870E+001, 2.6473722E+001, 1.8526038E+002
 4.0016364E+001, 3.0087067E+001, 2.4966597E+002
 5.0007780E+001, 3.6208679E+001, 3.1407162E+002
 6.0002718E+001, 4.5743011E+001, 3.7844937E+002
 7.0002439E+001, 5.9900322E+001, 4.4285245E+002
 8.0005321E+001, 7.9222992E+001, 4.7499866E+002
 9.0009015E+001, 9.8873352E+001, 4.7500000E+002
 1.0000571E+002, 1.1583112E+002, 4.7500000E+002
 1.1001491E+002, 1.3088385E+002, 4.7500000E+002
 1.2001291E+002, 1.4450111E+002, 4.7500000E+002
 1.3000919E+002, 1.5705666E+002, 4.7500000E+002
 1.4000314E+002, 1.6878696E+002, 4.7500000E+002
 1.5000295E+002, 1.7962343E+002, 4.7500000E+002
 1.6001220E+002, 1.8982397E+002, 4.7500000E+002
 1.7000515E+002, 1.9998416E+002, 4.7500000E+002
 1.8001160E+002, 2.0946486E+002, 4.7500000E+002
 1.9000155E+002, 2.1814401E+002, 4.7500000E+002
 2.0000121E+002, 2.2662155E+002, 4.7500000E+002
 2.1000857E+002, 2.3431088E+002, 4.7500000E+002
 2.2000282E+002, 2.4168372E+002, 4.7500000E+002
 2.3000384E+002, 2.4902782E+002, 4.7500000E+002
 2.4001481E+002, 2.5596078E+002, 4.7500000E+002
 2.5000960E+002, 2.6285547E+002, 4.7500000E+002
 2.6000498E+002, 2.6920377E+002, 4.7500000E+002
 2.7000302E+002, 2.7551660E+002, 4.7500000E+002
 2.8000034E+002, 2.8156131E+002, 4.7500000E+002
 2.9000737E+002, 2.8721408E+002, 4.7500000E+002
 3.0001228E+002, 2.9289474E+002, 4.7477866E+002
 3.1001197E+002, 2.9777484E+002, 4.7110629E+002
 3.2000196E+002, 3.0240939E+002, 4.6625275E+002
 3.3000654E+002, 3.0618195E+002, 4.6139804E+002
 3.4000752E+002, 3.0902768E+002, 4.5654089E+002
 3.5000509E+002, 3.1133466E+002, 4.5168521E+002
 3.6000578E+002, 3.1336215E+002, 4.4682965E+002
 3.7000827E+002, 3.1570172E+002, 4.4197287E+002
 3.8000910E+002, 3.1746054E+002, 4.3711609E+002
 3.9000228E+002, 3.1872861E+002, 4.3226154E+002
 4.0000974E+002, 3.1945761E+002, 4.2740540E+002
 4.1000282E+002, 3.2031223E+002, 4.2254926E+002
 4.2000552E+002, 3.2085379E+002, 4.1769443E+002
 4.3001128E+002, 3.2134695E+002, 4.1283624E+002
 4.4001090E+002, 3.2137659E+002, 4.0797891E+002
 4.5000421E+002, 3.2111093E+002, 4.0312466E+002
 4.6001196E+002, 3.2069168E+002, 3.9826849E+002
 4.7000049E+002, 3.2021063E+002, 3.9341336E+002
 4.8000086E+002, 3.1981805E+002, 3.8856015E+002
 4.9000673E+002, 3.1934094E+002, 3.8370273E+002
 5.0000775E+002, 3.1853387E+002, 3.7884506E+002
 5.1000073E+002, 3.1736057E+002, 3.7399060E+002
 5.2000399E+002, 3.1640454E+002, 3.6913550E+002
 5.3000168E+002, 3.1558395E+002, 3.6427942E+002
 5.4000392E+002, 3.1455124E+002, 3.5942349E+002
 5.5001025E+002, 3.1324908E+002, 3.5456528E+002
 5.6000558E+002, 3.1214038E+002, 3.4970901E+002
 5.7000216E+002, 3.1063342E+002, 3.4485504E+002
 5.8001101E+002, 3.0905087E+002, 3.3999759E+002
 5.9000574E+002, 3.0757693E+002, 3.3514090E+002
 6.0000013E+002, 3.0625067E+002, 3.3028748E+002
 6.1000163E+002, 3.0479630E+002, 3.2543256E+002
 6.2000412E+002, 3.0340521E+002, 3.2057568E+002
 6.3000656E+002, 3.0226544E+002, 3.1571860E+002
 6.4000497E+002, 3.0111621E+002, 3.1086240E+002
 6.5000640E+002, 2.9995538E+002, 3.0600644E+002
 6.6000790E+002, 2.9879291E+002, 3.0114981E+002
 6.7000261E+002, 2.9742755E+002, 2.9629471E+002
 6.8000405E+002, 2.9594034E+002, 2.9143967E+002
 6.9000357E+002, 2.9433014E+002, 2.8658353E+002
 7.0000378E+002, 2.9282880E+002, 2.8172751E+002
 7.1000457E+002, 2.9132202E+002, 2.7687131E+002
 7.2000676E+002, 2.8976184E+002, 2.7201456E+002
 7.3000826E+002, 2.8810736E+002, 2.6715771E+002
 7.4000869E+002, 2.8644180E+002, 2.6230127E+002
 7.5000154E+002, 2.8470938E+002, 2.5744696E+002
 7.6000347E+002, 2.8295117E+002, 2.5259216E+002
 7.7000869E+002, 2.8113721E+002, 2.4773445E+002
 7.8000276E+002, 2.7928937E+002, 2.4287859E+002
 7.9000035E+002, 2.7739896E+002, 2.3802472E+002
 8.0000241E+002, 2.7548361E+002, 2.3316879E+002
 8.1000197E+002, 2.7355374E+002, 2.2831241E+002
 8.2000592E+002, 2.7158020E+002, 2.2345554E+002
 8.3000846E+002, 2.6958954E+002, 2.1859782E+002
 8.4000500E+002, 2.6753961E+002, 2.1374211E+002
 8.5000350E+002, 2.6542435E+002, 2.0888734E+002
 8.6000580E+002, 2.6327939E+002, 2.0403117E+002
 8.7000855E+002, 2.6109412E+002, 1.9917398E+002
 8.8000683E+002, 2.5892960E+002, 1.9431766E+002
 8.9000472E+002, 2.5670200E+002, 1.8946251E+002
 9.0000100E+002, 2.5444534E+002, 1.8460799E+002
 9.1000242E+002, 2.5216098E+002, 1.7975252E+002
 9.2001033E+002, 2.4981882E+002, 1.7489424E+002
 9.3000486E+002, 2.4746465E+002, 1.7003766E+002
 9.4000369E+002, 2.4505992E+002, 1.6518320E+002
 9.5000955E+002, 2.4257729E+002, 1.6032608E+002
 9.6000428E+002, 2.4006227E+002, 1.5546999E+002
 9.7000426E+002, 2.3756973E+002, 1.5061530E+002
 9.8000774E+002, 2.3511314E+002, 1.4575824E+002
 9.9000767E+002, 2.3257283E+002, 1.4090135E+002
 1.0000020E+003, 2.3001370E+002, 1.3604698E+002
 1.0100076E+003, 2.2754060E+002, 1.3119089E+002
 1.0200103E+003, 2.2509753E+002, 1.2633276E+002
 1.0300024E+003, 2.2249989E+002, 1.2147799E+002
 1.0400110E+003, 2.1987157E+002, 1.1662173E+002
 1.0500098E+003, 2.1725117E+002, 1.1420000E+002
 1.0600073E+003, 2.1467683E+002, 1.1420000E+002
 1.0700024E+003, 2.1221777E+002, 1.1420000E+002
 1.0800098E+003, 2.0988393E+002, 1.1420000E+002
 1.0900128E+003, 2.0749403E+002, 1.1420000E+002
 1.1000010E+003, 2.0523398E+002, 1.1420000E+002
 1.1100082E+003, 2.0298058E+002, 1.1420000E+002
 1.1200007E+003, 2.0094174E+002, 1.1420000E+002
 1.1300064E+003, 1.9895508E+002, 1.1420000E+002
 1.1400056E+003, 1.9698964E+002, 1.1420000E+002
 1.1500013E+003, 1.9493375E+002, 1.1420000E+002
 1.1600013E+003, 1.9297797E+002, 1.1420000E+002
 1.1700026E+003, 1.9114584E+002, 1.1420000E+002
 1.1800042E+003, 1.8933492E+002, 1.1420000E+002
 1.1900000E+003, 1.8755655E+002, 1.1420000E+002
 1.2000073E+003, 1.8578587E+002, 1.1420000E+002
