s,C,C,C
Time,"Cable Temp","Shroud Temp","Conduit"
 0.000E+00, 3.100E+01, 3.100E+01, 3.100E+01
 1.506E+01, 3.100E+01, 6.660E+01, 3.105E+01
 3.007E+01, 3.100E+01, 1.367E+02, 3.157E+01
 4.500E+01, 3.103E+01, 2.066E+02, 3.304E+01
 6.001E+01, 3.115E+01, 2.766E+02, 3.597E+01
 7.503E+01, 3.142E+01, 3.467E+02, 4.094E+01
 9.004E+01, 3.181E+01, 4.168E+02, 4.879E+01
 1.050E+02, 3.232E+01, 4.712E+02, 6.012E+01
 1.200E+02, 3.322E+01, 4.750E+02, 7.283E+01
 1.350E+02, 3.424E+01, 4.750E+02, 8.538E+01
 1.500E+02, 3.553E+01, 4.750E+02, 9.772E+01
 1.650E+02, 3.694E+01, 4.750E+02, 1.098E+02
 1.800E+02, 3.864E+01, 4.750E+02, 1.216E+02
 1.950E+02, 4.042E+01, 4.750E+02, 1.332E+02
 2.100E+02, 4.242E+01, 4.750E+02, 1.444E+02
 2.250E+02, 4.468E+01, 4.750E+02, 1.555E+02
 2.400E+02, 4.723E+01, 4.750E+02, 1.663E+02
 2.550E+02, 4.995E+01, 4.750E+02, 1.768E+02
 2.700E+02, 5.283E+01, 4.750E+02, 1.870E+02
 2.850E+02, 5.594E+01, 4.750E+02, 1.970E+02
 3.000E+02, 5.937E+01, 4.750E+02, 2.067E+02
 3.150E+02, 6.316E+01, 4.750E+02, 2.162E+02
 3.300E+02, 6.700E+01, 4.750E+02, 2.254E+02
 3.450E+02, 7.095E+01, 4.750E+02, 2.344E+02
 3.600E+02, 7.511E+01, 4.750E+02, 2.430E+02
 3.750E+02, 7.957E+01, 4.750E+02, 2.514E+02
 3.900E+02, 8.441E+01, 4.750E+02, 2.595E+02
 4.050E+02, 8.943E+01, 4.750E+02, 2.674E+02
 4.200E+02, 9.462E+01, 4.750E+02, 2.750E+02
 4.350E+02, 9.998E+01, 4.750E+02, 2.823E+02
 4.500E+02, 1.055E+02, 4.750E+02, 2.894E+02
 4.650E+02, 1.112E+02, 4.750E+02, 2.962E+02
 4.800E+02, 1.171E+02, 4.750E+02, 3.028E+02
 4.950E+02, 1.232E+02, 4.750E+02, 3.091E+02
 5.100E+02, 1.293E+02, 4.750E+02, 3.151E+02
 5.250E+02, 1.356E+02, 4.750E+02, 3.209E+02
 5.400E+02, 1.419E+02, 4.750E+02, 3.265E+02
 5.550E+02, 1.484E+02, 4.750E+02, 3.318E+02
 5.700E+02, 1.549E+02, 4.750E+02, 3.368E+02
 5.850E+02, 1.614E+02, 4.750E+02, 3.417E+02
 6.000E+02, 1.680E+02, 4.750E+02, 3.464E+02
 6.150E+02, 1.746E+02, 4.750E+02, 3.508E+02
 6.300E+02, 1.812E+02, 4.750E+02, 3.551E+02
 6.450E+02, 1.877E+02, 4.750E+02, 3.592E+02
 6.600E+02, 1.944E+02, 4.750E+02, 3.631E+02
 6.750E+02, 2.009E+02, 4.750E+02, 3.668E+02
 6.900E+02, 2.074E+02, 4.750E+02, 3.703E+02
 7.050E+02, 2.139E+02, 4.750E+02, 3.736E+02
 7.200E+02, 2.203E+02, 4.750E+02, 3.768E+02
 7.350E+02, 2.267E+02, 4.750E+02, 3.798E+02
 7.500E+02, 2.329E+02, 4.750E+02, 3.827E+02
 7.650E+02, 2.390E+02, 4.750E+02, 3.856E+02
 7.800E+02, 2.450E+02, 4.750E+02, 3.882E+02
 7.950E+02, 2.509E+02, 4.750E+02, 3.906E+02
 8.100E+02, 2.567E+02, 4.750E+02, 3.931E+02
 8.250E+02, 2.624E+02, 4.750E+02, 3.955E+02
 8.400E+02, 2.681E+02, 4.750E+02, 3.976E+02
 8.550E+02, 2.736E+02, 4.750E+02, 3.995E+02
 8.700E+02, 2.790E+02, 4.750E+02, 4.015E+02
 8.850E+02, 2.843E+02, 4.750E+02, 4.035E+02
 9.000E+02, 2.895E+02, 4.750E+02, 4.052E+02
 9.150E+02, 2.945E+02, 4.750E+02, 4.070E+02
 9.300E+02, 2.993E+02, 4.750E+02, 4.085E+02
 9.450E+02, 3.040E+02, 4.750E+02, 4.100E+02
 9.600E+02, 3.086E+02, 4.750E+02, 4.115E+02
 9.750E+02, 3.131E+02, 4.750E+02, 4.130E+02
 9.900E+02, 3.174E+02, 4.750E+02, 4.142E+02
 1.005E+03, 3.215E+02, 4.750E+02, 4.155E+02
 1.020E+03, 3.257E+02, 4.750E+02, 4.168E+02
 1.035E+03, 3.297E+02, 4.750E+02, 4.180E+02
 1.050E+03, 3.336E+02, 4.750E+02, 4.191E+02
 1.065E+03, 3.373E+02, 4.750E+02, 4.201E+02
 1.080E+03, 3.409E+02, 4.750E+02, 4.211E+02
 1.095E+03, 3.442E+02, 4.750E+02, 4.220E+02
 1.110E+03, 3.476E+02, 4.750E+02, 4.229E+02
 1.125E+03, 3.508E+02, 4.750E+02, 4.237E+02
 1.140E+03, 3.539E+02, 4.750E+02, 4.247E+02
 1.155E+03, 3.570E+02, 4.750E+02, 4.255E+02
 1.170E+03, 3.599E+02, 4.750E+02, 4.262E+02
 1.185E+03, 3.627E+02, 4.750E+02, 4.270E+02
 1.200E+03, 3.655E+02, 4.750E+02, 4.278E+02
 1.215E+03, 3.683E+02, 4.750E+02, 4.285E+02
 1.230E+03, 3.710E+02, 4.750E+02, 4.291E+02
 1.245E+03, 3.734E+02, 4.750E+02, 4.296E+02
 1.260E+03, 3.758E+02, 4.750E+02, 4.303E+02
 1.275E+03, 3.782E+02, 4.750E+02, 4.309E+02
 1.290E+03, 3.805E+02, 4.750E+02, 4.314E+02
 1.305E+03, 3.827E+02, 4.750E+02, 4.319E+02
 1.320E+03, 3.847E+02, 4.750E+02, 4.323E+02
 1.335E+03, 3.866E+02, 4.750E+02, 4.329E+02
 1.350E+03, 3.886E+02, 4.750E+02, 4.333E+02
 1.365E+03, 3.906E+02, 4.750E+02, 4.338E+02
 1.380E+03, 3.924E+02, 4.750E+02, 4.342E+02
 1.395E+03, 3.942E+02, 4.750E+02, 4.347E+02
 1.410E+03, 3.960E+02, 4.750E+02, 4.351E+02
 1.425E+03, 3.976E+02, 4.750E+02, 4.355E+02
 1.440E+03, 3.991E+02, 4.750E+02, 4.359E+02
 1.455E+03, 4.006E+02, 4.750E+02, 4.363E+02
 1.470E+03, 4.022E+02, 4.750E+02, 4.367E+02
 1.485E+03, 4.036E+02, 4.750E+02, 4.370E+02
 1.500E+03, 4.048E+02, 4.750E+02, 4.372E+02
 1.515E+03, 4.060E+02, 4.750E+02, 4.375E+02
 1.530E+03, 4.073E+02, 4.750E+02, 4.377E+02
 1.545E+03, 4.082E+02, 4.750E+02, 4.378E+02
 1.560E+03, 4.092E+02, 4.750E+02, 4.380E+02
 1.575E+03, 4.102E+02, 4.750E+02, 4.382E+02
 1.590E+03, 4.112E+02, 4.750E+02, 4.384E+02
 1.605E+03, 4.121E+02, 4.750E+02, 4.385E+02
 1.620E+03, 4.129E+02, 4.750E+02, 4.387E+02
 1.635E+03, 4.138E+02, 4.750E+02, 4.389E+02
 1.650E+03, 4.147E+02, 4.750E+02, 4.390E+02
 1.665E+03, 4.156E+02, 4.750E+02, 4.392E+02
 1.680E+03, 4.164E+02, 4.750E+02, 4.392E+02
 1.695E+03, 4.168E+02, 4.750E+02, 4.394E+02
 1.710E+03, 4.175E+02, 4.750E+02, 4.396E+02
 1.725E+03, 4.183E+02, 4.750E+02, 4.397E+02
 1.740E+03, 4.189E+02, 4.750E+02, 4.398E+02
 1.755E+03, 4.196E+02, 4.750E+02, 4.400E+02
 1.770E+03, 4.203E+02, 4.750E+02, 4.402E+02
 1.785E+03, 4.210E+02, 4.750E+02, 4.403E+02
 1.800E+03, 4.218E+02, 4.750E+02, 4.406E+02
 1.815E+03, 4.225E+02, 4.750E+02, 4.408E+02
 1.830E+03, 4.232E+02, 4.750E+02, 4.410E+02
 1.845E+03, 4.238E+02, 4.750E+02, 4.411E+02
 1.860E+03, 4.243E+02, 4.750E+02, 4.412E+02
 1.875E+03, 4.247E+02, 4.750E+02, 4.412E+02
 1.890E+03, 4.249E+02, 4.750E+02, 4.412E+02
 1.905E+03, 4.253E+02, 4.750E+02, 4.414E+02
 1.920E+03, 4.257E+02, 4.750E+02, 4.416E+02
 1.935E+03, 4.262E+02, 4.750E+02, 4.417E+02
 1.950E+03, 4.267E+02, 4.750E+02, 4.417E+02
 1.965E+03, 4.269E+02, 4.750E+02, 4.416E+02
 1.980E+03, 4.272E+02, 4.750E+02, 4.416E+02
 1.995E+03, 4.274E+02, 4.750E+02, 4.417E+02
 2.010E+03, 4.278E+02, 4.750E+02, 4.419E+02
 2.025E+03, 4.283E+02, 4.750E+02, 4.420E+02
 2.040E+03, 4.287E+02, 4.750E+02, 4.421E+02
 2.055E+03, 4.292E+02, 4.750E+02, 4.423E+02
 2.070E+03, 4.296E+02, 4.750E+02, 4.424E+02
 2.085E+03, 4.299E+02, 4.750E+02, 4.426E+02
 2.100E+03, 4.302E+02, 4.750E+02, 4.427E+02
 2.115E+03, 4.304E+02, 4.750E+02, 4.427E+02
 2.130E+03, 4.306E+02, 4.750E+02, 4.426E+02
 2.145E+03, 4.305E+02, 4.750E+02, 4.426E+02
 2.160E+03, 4.306E+02, 4.750E+02, 4.426E+02
 2.175E+03, 4.307E+02, 4.750E+02, 4.425E+02
 2.190E+03, 4.309E+02, 4.750E+02, 4.425E+02
 2.205E+03, 4.309E+02, 4.750E+02, 4.425E+02
 2.220E+03, 4.311E+02, 4.750E+02, 4.425E+02
 2.235E+03, 4.312E+02, 4.750E+02, 4.425E+02
 2.250E+03, 4.312E+02, 4.750E+02, 4.424E+02
 2.265E+03, 4.315E+02, 4.750E+02, 4.426E+02
 2.280E+03, 4.319E+02, 4.750E+02, 4.427E+02
 2.295E+03, 4.320E+02, 4.750E+02, 4.426E+02
 2.310E+03, 4.320E+02, 4.750E+02, 4.425E+02
 2.325E+03, 4.319E+02, 4.750E+02, 4.424E+02
 2.340E+03, 4.320E+02, 4.750E+02, 4.424E+02
 2.355E+03, 4.321E+02, 4.750E+02, 4.424E+02
 2.370E+03, 4.323E+02, 4.750E+02, 4.426E+02
 2.385E+03, 4.324E+02, 4.750E+02, 4.425E+02
 2.400E+03, 4.325E+02, 4.750E+02, 4.426E+02
 2.415E+03, 4.328E+02, 4.750E+02, 4.428E+02
 2.430E+03, 4.332E+02, 4.750E+02, 4.430E+02
 2.445E+03, 4.334E+02, 4.750E+02, 4.430E+02
 2.460E+03, 4.335E+02, 4.750E+02, 4.430E+02
 2.475E+03, 4.336E+02, 4.750E+02, 4.431E+02
 2.490E+03, 4.337E+02, 4.750E+02, 4.431E+02
 2.505E+03, 4.339E+02, 4.750E+02, 4.431E+02
 2.520E+03, 4.341E+02, 4.750E+02, 4.433E+02
 2.535E+03, 4.343E+02, 4.750E+02, 4.434E+02
 2.550E+03, 4.345E+02, 4.750E+02, 4.435E+02
 2.565E+03, 4.347E+02, 4.750E+02, 4.435E+02
 2.580E+03, 4.348E+02, 4.750E+02, 4.435E+02
 2.595E+03, 4.347E+02, 4.750E+02, 4.434E+02
 2.610E+03, 4.345E+02, 4.750E+02, 4.433E+02
 2.625E+03, 4.345E+02, 4.750E+02, 4.434E+02
 2.640E+03, 4.347E+02, 4.750E+02, 4.434E+02
 2.655E+03, 4.347E+02, 4.750E+02, 4.435E+02
 2.670E+03, 4.347E+02, 4.750E+02, 4.434E+02
 2.685E+03, 4.347E+02, 4.750E+02, 4.434E+02
 2.700E+03, 4.348E+02, 4.750E+02, 4.434E+02
 2.715E+03, 4.349E+02, 4.750E+02, 4.434E+02
 2.730E+03, 4.349E+02, 4.750E+02, 4.433E+02
 2.745E+03, 4.346E+02, 4.750E+02, 4.434E+02
 2.760E+03, 4.347E+02, 4.750E+02, 4.434E+02
 2.775E+03, 4.349E+02, 4.750E+02, 4.435E+02
 2.790E+03, 4.351E+02, 4.750E+02, 4.435E+02
 2.805E+03, 4.351E+02, 4.750E+02, 4.435E+02
 2.820E+03, 4.351E+02, 4.741E+02, 4.433E+02
 2.835E+03, 4.348E+02, 4.701E+02, 4.430E+02
 2.850E+03, 4.347E+02, 4.659E+02, 4.425E+02
 2.865E+03, 4.347E+02, 4.616E+02, 4.419E+02
 2.880E+03, 4.347E+02, 4.574E+02, 4.410E+02
 2.895E+03, 4.343E+02, 4.532E+02, 4.398E+02
 2.910E+03, 4.339E+02, 4.490E+02, 4.386E+02
 2.925E+03, 4.337E+02, 4.448E+02, 4.372E+02
 2.940E+03, 4.330E+02, 4.406E+02, 4.355E+02
 2.955E+03, 4.325E+02, 4.363E+02, 4.338E+02
 2.970E+03, 4.322E+02, 4.321E+02, 4.321E+02
 2.985E+03, 4.316E+02, 4.279E+02, 4.302E+02
 3.000E+03, 4.312E+02, 4.237E+02, 4.282E+02
 3.015E+03, 4.305E+02, 4.195E+02, 4.261E+02
 3.030E+03, 4.298E+02, 4.153E+02, 4.239E+02
 3.045E+03, 4.287E+02, 4.111E+02, 4.215E+02
 3.060E+03, 4.274E+02, 4.068E+02, 4.191E+02
 3.075E+03, 4.264E+02, 4.026E+02, 4.167E+02
 3.090E+03, 4.255E+02, 3.984E+02, 4.143E+02
 3.105E+03, 4.243E+02, 3.942E+02, 4.118E+02
 3.120E+03, 4.229E+02, 3.900E+02, 4.091E+02
 3.135E+03, 4.213E+02, 3.858E+02, 4.065E+02
 3.150E+03, 4.201E+02, 3.816E+02, 4.039E+02
 3.165E+03, 4.188E+02, 3.773E+02, 4.012E+02
 3.180E+03, 4.170E+02, 3.731E+02, 3.983E+02
 3.195E+03, 4.152E+02, 3.689E+02, 3.955E+02
 3.210E+03, 4.136E+02, 3.647E+02, 3.928E+02
 3.225E+03, 4.122E+02, 3.605E+02, 3.900E+02
 3.240E+03, 4.106E+02, 3.563E+02, 3.871E+02
 3.255E+03, 4.087E+02, 3.520E+02, 3.842E+02
 3.270E+03, 4.067E+02, 3.478E+02, 3.813E+02
 3.285E+03, 4.048E+02, 3.436E+02, 3.785E+02
 3.300E+03, 4.031E+02, 3.394E+02, 3.757E+02
 3.315E+03, 4.014E+02, 3.352E+02, 3.728E+02
 3.330E+03, 3.994E+02, 3.310E+02, 3.699E+02
 3.345E+03, 3.973E+02, 3.268E+02, 3.670E+02
 3.360E+03, 3.953E+02, 3.225E+02, 3.641E+02
 3.375E+03, 3.932E+02, 3.183E+02, 3.612E+02
 3.390E+03, 3.911E+02, 3.141E+02, 3.583E+02
 3.405E+03, 3.893E+02, 3.099E+02, 3.555E+02
 3.420E+03, 3.875E+02, 3.057E+02, 3.526E+02
 3.435E+03, 3.853E+02, 3.015E+02, 3.498E+02
 3.450E+03, 3.834E+02, 2.972E+02, 3.470E+02
 3.465E+03, 3.814E+02, 2.930E+02, 3.441E+02
 3.480E+03, 3.788E+02, 2.888E+02, 3.411E+02
 3.495E+03, 3.767E+02, 2.846E+02, 3.383E+02
 3.510E+03, 3.747E+02, 2.804E+02, 3.354E+02
 3.525E+03, 3.726E+02, 2.762E+02, 3.325E+02
 3.540E+03, 3.702E+02, 2.720E+02, 3.296E+02
 3.555E+03, 3.680E+02, 2.677E+02, 3.267E+02
 3.570E+03, 3.656E+02, 2.635E+02, 3.238E+02
 3.585E+03, 3.632E+02, 2.593E+02, 3.209E+02
 3.600E+03, 3.609E+02, 2.551E+02, 3.181E+02
