s,C,C,C
Time,"Cable Temp","Shroud Temp","Conduit"
 0.000E+00, 3.100E+01, 3.100E+01, 3.100E+01
 1.502E+01, 3.100E+01, 6.841E+01, 3.106E+01
 3.004E+01, 3.100E+01, 1.423E+02, 3.160E+01
 4.503E+01, 3.103E+01, 2.163E+02, 3.313E+01
 6.004E+01, 3.110E+01, 2.903E+02, 3.616E+01
 7.502E+01, 3.124E+01, 3.642E+02, 4.139E+01
 9.002E+01, 3.147E+01, 4.382E+02, 4.969E+01
 1.050E+02, 3.183E+01, 4.750E+02, 6.126E+01
 1.200E+02, 3.235E+01, 4.750E+02, 7.338E+01
 1.350E+02, 3.300E+01, 4.750E+02, 8.534E+01
 1.500E+02, 3.376E+01, 4.750E+02, 9.701E+01
 1.650E+02, 3.464E+01, 4.750E+02, 1.085E+02
 1.800E+02, 3.565E+01, 4.750E+02, 1.197E+02
 1.950E+02, 3.678E+01, 4.750E+02, 1.307E+02
 2.100E+02, 3.804E+01, 4.750E+02, 1.414E+02
 2.250E+02, 3.944E+01, 4.750E+02, 1.520E+02
 2.400E+02, 4.100E+01, 4.750E+02, 1.622E+02
 2.550E+02, 4.271E+01, 4.750E+02, 1.723E+02
 2.700E+02, 4.456E+01, 4.750E+02, 1.820E+02
 2.850E+02, 4.656E+01, 4.750E+02, 1.916E+02
 3.000E+02, 4.873E+01, 4.750E+02, 2.008E+02
 3.150E+02, 5.107E+01, 4.750E+02, 2.099E+02
 3.300E+02, 5.357E+01, 4.750E+02, 2.187E+02
 3.450E+02, 5.622E+01, 4.750E+02, 2.272E+02
 3.600E+02, 5.901E+01, 4.750E+02, 2.354E+02
 3.750E+02, 6.195E+01, 4.750E+02, 2.433E+02
 3.900E+02, 6.503E+01, 4.750E+02, 2.510E+02
 4.050E+02, 6.824E+01, 4.750E+02, 2.583E+02
 4.200E+02, 7.158E+01, 4.750E+02, 2.653E+02
 4.350E+02, 7.505E+01, 4.750E+02, 2.721E+02
 4.500E+02, 7.869E+01, 4.750E+02, 2.786E+02
 4.650E+02, 8.246E+01, 4.750E+02, 2.849E+02
 4.800E+02, 8.634E+01, 4.750E+02, 2.909E+02
 4.950E+02, 9.035E+01, 4.750E+02, 2.966E+02
 5.100E+02, 9.447E+01, 4.750E+02, 3.022E+02
 5.250E+02, 9.869E+01, 4.750E+02, 3.073E+02
 5.400E+02, 1.030E+02, 4.750E+02, 3.123E+02
 5.550E+02, 1.073E+02, 4.750E+02, 3.171E+02
 5.700E+02, 1.117E+02, 4.750E+02, 3.216E+02
 5.850E+02, 1.162E+02, 4.750E+02, 3.260E+02
 6.000E+02, 1.208E+02, 4.750E+02, 3.300E+02
 6.150E+02, 1.253E+02, 4.750E+02, 3.338E+02
 6.300E+02, 1.299E+02, 4.750E+02, 3.375E+02
 6.450E+02, 1.345E+02, 4.750E+02, 3.409E+02
 6.600E+02, 1.391E+02, 4.750E+02, 3.442E+02
 6.750E+02, 1.437E+02, 4.750E+02, 3.473E+02
 6.900E+02, 1.483E+02, 4.750E+02, 3.503E+02
 7.050E+02, 1.529E+02, 4.750E+02, 3.530E+02
 7.200E+02, 1.574E+02, 4.750E+02, 3.556E+02
 7.350E+02, 1.620E+02, 4.750E+02, 3.580E+02
 7.500E+02, 1.665E+02, 4.750E+02, 3.603E+02
 7.650E+02, 1.710E+02, 4.750E+02, 3.626E+02
 7.800E+02, 1.754E+02, 4.750E+02, 3.646E+02
 7.950E+02, 1.797E+02, 4.750E+02, 3.665E+02
 8.100E+02, 1.840E+02, 4.750E+02, 3.684E+02
 8.250E+02, 1.883E+02, 4.750E+02, 3.701E+02
 8.400E+02, 1.925E+02, 4.750E+02, 3.717E+02
 8.550E+02, 1.966E+02, 4.750E+02, 3.733E+02
 8.700E+02, 2.007E+02, 4.750E+02, 3.747E+02
 8.850E+02, 2.047E+02, 4.750E+02, 3.761E+02
 9.000E+02, 2.087E+02, 4.750E+02, 3.775E+02
 9.150E+02, 2.126E+02, 4.750E+02, 3.788E+02
 9.300E+02, 2.165E+02, 4.750E+02, 3.800E+02
 9.450E+02, 2.202E+02, 4.750E+02, 3.810E+02
 9.600E+02, 2.238E+02, 4.750E+02, 3.820E+02
 9.750E+02, 2.274E+02, 4.750E+02, 3.830E+02
 9.900E+02, 2.309E+02, 4.750E+02, 3.838E+02
 1.005E+03, 2.342E+02, 4.750E+02, 3.846E+02
 1.020E+03, 2.376E+02, 4.750E+02, 3.853E+02
 1.035E+03, 2.409E+02, 4.750E+02, 3.861E+02
 1.050E+03, 2.441E+02, 4.750E+02, 3.869E+02
 1.065E+03, 2.474E+02, 4.750E+02, 3.876E+02
 1.080E+03, 2.505E+02, 4.750E+02, 3.883E+02
 1.095E+03, 2.535E+02, 4.750E+02, 3.889E+02
 1.110E+03, 2.563E+02, 4.750E+02, 3.893E+02
 1.125E+03, 2.592E+02, 4.750E+02, 3.899E+02
 1.140E+03, 2.621E+02, 4.750E+02, 3.905E+02
 1.155E+03, 2.649E+02, 4.750E+02, 3.911E+02
 1.170E+03, 2.677E+02, 4.750E+02, 3.914E+02
 1.185E+03, 2.702E+02, 4.750E+02, 3.918E+02
 1.200E+03, 2.727E+02, 4.750E+02, 3.921E+02
 1.215E+03, 2.751E+02, 4.750E+02, 3.925E+02
 1.230E+03, 2.774E+02, 4.750E+02, 3.929E+02
 1.245E+03, 2.798E+02, 4.750E+02, 3.932E+02
 1.260E+03, 2.821E+02, 4.750E+02, 3.936E+02
 1.275E+03, 2.843E+02, 4.750E+02, 3.940E+02
 1.290E+03, 2.864E+02, 4.750E+02, 3.944E+02
 1.305E+03, 2.885E+02, 4.750E+02, 3.947E+02
 1.320E+03, 2.906E+02, 4.750E+02, 3.949E+02
 1.335E+03, 2.925E+02, 4.750E+02, 3.952E+02
 1.350E+03, 2.944E+02, 4.750E+02, 3.957E+02
 1.365E+03, 2.964E+02, 4.750E+02, 3.960E+02
 1.380E+03, 2.983E+02, 4.750E+02, 3.961E+02
 1.395E+03, 3.001E+02, 4.750E+02, 3.964E+02
 1.410E+03, 3.018E+02, 4.750E+02, 3.965E+02
 1.425E+03, 3.034E+02, 4.750E+02, 3.966E+02
 1.440E+03, 3.049E+02, 4.750E+02, 3.968E+02
 1.455E+03, 3.065E+02, 4.750E+02, 3.969E+02
 1.470E+03, 3.080E+02, 4.750E+02, 3.971E+02
 1.485E+03, 3.095E+02, 4.750E+02, 3.972E+02
 1.500E+03, 3.110E+02, 4.750E+02, 3.974E+02
 1.515E+03, 3.125E+02, 4.750E+02, 3.975E+02
 1.530E+03, 3.140E+02, 4.750E+02, 3.976E+02
 1.545E+03, 3.154E+02, 4.750E+02, 3.977E+02
 1.560E+03, 3.168E+02, 4.750E+02, 3.978E+02
 1.575E+03, 3.180E+02, 4.750E+02, 3.978E+02
 1.590E+03, 3.192E+02, 4.750E+02, 3.980E+02
 1.605E+03, 3.202E+02, 4.750E+02, 3.981E+02
 1.620E+03, 3.213E+02, 4.750E+02, 3.982E+02
 1.635E+03, 3.224E+02, 4.750E+02, 3.983E+02
 1.650E+03, 3.234E+02, 4.750E+02, 3.983E+02
 1.665E+03, 3.244E+02, 4.750E+02, 3.984E+02
 1.680E+03, 3.254E+02, 4.750E+02, 3.986E+02
 1.695E+03, 3.264E+02, 4.750E+02, 3.987E+02
 1.710E+03, 3.273E+02, 4.750E+02, 3.988E+02
 1.725E+03, 3.283E+02, 4.750E+02, 3.989E+02
 1.740E+03, 3.292E+02, 4.750E+02, 3.990E+02
 1.755E+03, 3.302E+02, 4.750E+02, 3.992E+02
 1.770E+03, 3.311E+02, 4.750E+02, 3.992E+02
 1.785E+03, 3.319E+02, 4.750E+02, 3.992E+02
 1.800E+03, 3.327E+02, 4.750E+02, 3.992E+02
 1.815E+03, 3.333E+02, 4.750E+02, 3.992E+02
 1.830E+03, 3.339E+02, 4.750E+02, 3.992E+02
 1.845E+03, 3.345E+02, 4.750E+02, 3.992E+02
 1.860E+03, 3.352E+02, 4.750E+02, 3.993E+02
 1.875E+03, 3.358E+02, 4.750E+02, 3.994E+02
 1.890E+03, 3.365E+02, 4.750E+02, 3.995E+02
 1.905E+03, 3.371E+02, 4.750E+02, 3.995E+02
 1.920E+03, 3.378E+02, 4.750E+02, 3.996E+02
 1.935E+03, 3.384E+02, 4.750E+02, 3.996E+02
 1.950E+03, 3.391E+02, 4.750E+02, 3.997E+02
 1.965E+03, 3.396E+02, 4.750E+02, 3.997E+02
 1.980E+03, 3.401E+02, 4.750E+02, 3.997E+02
 1.995E+03, 3.406E+02, 4.750E+02, 3.997E+02
 2.010E+03, 3.410E+02, 4.750E+02, 3.997E+02
 2.025E+03, 3.414E+02, 4.750E+02, 3.997E+02
 2.040E+03, 3.418E+02, 4.750E+02, 3.997E+02
 2.055E+03, 3.422E+02, 4.750E+02, 3.997E+02
 2.070E+03, 3.426E+02, 4.750E+02, 3.997E+02
 2.085E+03, 3.431E+02, 4.750E+02, 3.997E+02
 2.100E+03, 3.436E+02, 4.750E+02, 3.996E+02
 2.115E+03, 3.440E+02, 4.750E+02, 3.996E+02
 2.130E+03, 3.445E+02, 4.750E+02, 3.998E+02
 2.145E+03, 3.449E+02, 4.750E+02, 3.998E+02
 2.160E+03, 3.453E+02, 4.750E+02, 3.998E+02
 2.175E+03, 3.456E+02, 4.750E+02, 3.998E+02
 2.190E+03, 3.459E+02, 4.750E+02, 3.997E+02
 2.205E+03, 3.462E+02, 4.750E+02, 3.998E+02
 2.220E+03, 3.465E+02, 4.750E+02, 3.998E+02
 2.235E+03, 3.467E+02, 4.750E+02, 3.997E+02
 2.250E+03, 3.470E+02, 4.750E+02, 3.997E+02
 2.265E+03, 3.474E+02, 4.750E+02, 3.997E+02
 2.280E+03, 3.476E+02, 4.750E+02, 3.997E+02
 2.295E+03, 3.479E+02, 4.750E+02, 3.998E+02
 2.310E+03, 3.481E+02, 4.750E+02, 3.997E+02
 2.325E+03, 3.483E+02, 4.750E+02, 3.996E+02
 2.340E+03, 3.486E+02, 4.750E+02, 3.997E+02
 2.355E+03, 3.489E+02, 4.750E+02, 3.997E+02
 2.370E+03, 3.491E+02, 4.750E+02, 3.997E+02
 2.385E+03, 3.493E+02, 4.750E+02, 3.997E+02
 2.400E+03, 3.495E+02, 4.750E+02, 3.998E+02
 2.415E+03, 3.498E+02, 4.750E+02, 3.999E+02
 2.430E+03, 3.500E+02, 4.750E+02, 3.998E+02
 2.445E+03, 3.502E+02, 4.750E+02, 3.999E+02
 2.460E+03, 3.504E+02, 4.750E+02, 3.999E+02
 2.475E+03, 3.506E+02, 4.750E+02, 4.000E+02
 2.490E+03, 3.507E+02, 4.750E+02, 4.000E+02
 2.505E+03, 3.509E+02, 4.750E+02, 4.000E+02
 2.520E+03, 3.509E+02, 4.750E+02, 3.999E+02
 2.535E+03, 3.510E+02, 4.750E+02, 4.001E+02
 2.550E+03, 3.513E+02, 4.750E+02, 4.001E+02
 2.565E+03, 3.514E+02, 4.750E+02, 4.001E+02
 2.580E+03, 3.516E+02, 4.750E+02, 4.001E+02
 2.595E+03, 3.517E+02, 4.750E+02, 4.001E+02
 2.610E+03, 3.518E+02, 4.750E+02, 4.001E+02
 2.625E+03, 3.518E+02, 4.750E+02, 4.001E+02
 2.640E+03, 3.518E+02, 4.750E+02, 4.001E+02
 2.655E+03, 3.518E+02, 4.750E+02, 4.001E+02
 2.670E+03, 3.519E+02, 4.750E+02, 4.001E+02
 2.685E+03, 3.519E+02, 4.750E+02, 4.000E+02
 2.700E+03, 3.520E+02, 4.750E+02, 4.001E+02
 2.715E+03, 3.523E+02, 4.750E+02, 4.002E+02
 2.730E+03, 3.525E+02, 4.750E+02, 4.002E+02
 2.745E+03, 3.526E+02, 4.750E+02, 4.002E+02
 2.760E+03, 3.526E+02, 4.750E+02, 4.001E+02
 2.775E+03, 3.527E+02, 4.750E+02, 4.001E+02
 2.790E+03, 3.528E+02, 4.750E+02, 4.001E+02
 2.805E+03, 3.529E+02, 4.750E+02, 4.002E+02
 2.820E+03, 3.531E+02, 4.750E+02, 4.001E+02
 2.835E+03, 3.531E+02, 4.750E+02, 4.001E+02
 2.850E+03, 3.532E+02, 4.750E+02, 4.001E+02
 2.865E+03, 3.533E+02, 4.750E+02, 4.002E+02
 2.880E+03, 3.534E+02, 4.750E+02, 4.002E+02
 2.895E+03, 3.535E+02, 4.750E+02, 4.002E+02
 2.910E+03, 3.536E+02, 4.750E+02, 4.001E+02
 2.925E+03, 3.537E+02, 4.750E+02, 4.001E+02
 2.940E+03, 3.538E+02, 4.750E+02, 4.002E+02
 2.955E+03, 3.539E+02, 4.750E+02, 4.002E+02
 2.970E+03, 3.539E+02, 4.750E+02, 4.002E+02
 2.985E+03, 3.538E+02, 4.715E+02, 4.002E+02
 3.000E+03, 3.539E+02, 4.646E+02, 3.998E+02
 3.015E+03, 3.539E+02, 4.576E+02, 3.989E+02
 3.030E+03, 3.539E+02, 4.507E+02, 3.976E+02
 3.045E+03, 3.539E+02, 4.438E+02, 3.961E+02
 3.060E+03, 3.537E+02, 4.368E+02, 3.942E+02
 3.075E+03, 3.534E+02, 4.299E+02, 3.920E+02
 3.090E+03, 3.530E+02, 4.230E+02, 3.896E+02
 3.105E+03, 3.524E+02, 4.160E+02, 3.871E+02
 3.120E+03, 3.518E+02, 4.091E+02, 3.843E+02
 3.135E+03, 3.512E+02, 4.021E+02, 3.814E+02
 3.150E+03, 3.504E+02, 3.952E+02, 3.783E+02
 3.165E+03, 3.494E+02, 3.883E+02, 3.750E+02
 3.180E+03, 3.485E+02, 3.813E+02, 3.717E+02
 3.195E+03, 3.474E+02, 3.744E+02, 3.682E+02
 3.210E+03, 3.463E+02, 3.675E+02, 3.647E+02
 3.225E+03, 3.452E+02, 3.605E+02, 3.612E+02
 3.240E+03, 3.438E+02, 3.536E+02, 3.574E+02
 3.255E+03, 3.423E+02, 3.466E+02, 3.535E+02
 3.270E+03, 3.408E+02, 3.397E+02, 3.499E+02
 3.285E+03, 3.393E+02, 3.328E+02, 3.461E+02
 3.300E+03, 3.378E+02, 3.258E+02, 3.422E+02
 3.315E+03, 3.362E+02, 3.189E+02, 3.383E+02
 3.330E+03, 3.344E+02, 3.120E+02, 3.343E+02
 3.345E+03, 3.326E+02, 3.050E+02, 3.304E+02
 3.360E+03, 3.308E+02, 2.981E+02, 3.264E+02
 3.375E+03, 3.290E+02, 2.911E+02, 3.224E+02
 3.390E+03, 3.271E+02, 2.842E+02, 3.185E+02
 3.405E+03, 3.252E+02, 2.773E+02, 3.145E+02
 3.420E+03, 3.232E+02, 2.703E+02, 3.105E+02
 3.435E+03, 3.211E+02, 2.634E+02, 3.065E+02
 3.450E+03, 3.189E+02, 2.565E+02, 3.024E+02
 3.465E+03, 3.168E+02, 2.530E+02, 2.985E+02
 3.480E+03, 3.147E+02, 2.530E+02, 2.947E+02
 3.495E+03, 3.125E+02, 2.530E+02, 2.911E+02
 3.510E+03, 3.103E+02, 2.530E+02, 2.876E+02
 3.525E+03, 3.081E+02, 2.530E+02, 2.843E+02
 3.540E+03, 3.059E+02, 2.530E+02, 2.811E+02
 3.555E+03, 3.037E+02, 2.530E+02, 2.781E+02
 3.570E+03, 3.015E+02, 2.530E+02, 2.752E+02
 3.585E+03, 2.993E+02, 2.530E+02, 2.725E+02
 3.600E+03, 2.971E+02, 2.530E+02, 2.699E+02
