s,C,C,C
Time,"Cable Temp","Shroud Temp","Conduit"
 0.000E+00, 3.100E+01, 3.100E+01, 3.100E+01
 1.509E+01, 3.088E+01, 7.173E+01, 3.107E+01
 3.005E+01, 3.089E+01, 1.519E+02, 3.170E+01
 4.501E+01, 3.101E+01, 2.318E+02, 3.354E+01
 6.003E+01, 3.115E+01, 3.073E+02, 3.723E+01
 7.505E+01, 3.133E+01, 3.250E+02, 4.242E+01
 9.000E+01, 3.180E+01, 3.250E+02, 4.771E+01
 1.051E+02, 3.223E+01, 3.250E+02, 5.294E+01
 1.200E+02, 3.275E+01, 3.250E+02, 5.810E+01
 1.350E+02, 3.333E+01, 3.250E+02, 6.317E+01
 1.500E+02, 3.407E+01, 3.250E+02, 6.818E+01
 1.650E+02, 3.483E+01, 3.250E+02, 7.313E+01
 1.800E+02, 3.570E+01, 3.250E+02, 7.795E+01
 1.950E+02, 3.656E+01, 3.250E+02, 8.270E+01
 2.100E+02, 3.746E+01, 3.250E+02, 8.737E+01
 2.251E+02, 3.862E+01, 3.250E+02, 9.197E+01
 2.400E+02, 3.966E+01, 3.250E+02, 9.648E+01
 2.550E+02, 4.066E+01, 3.250E+02, 1.009E+02
 2.700E+02, 4.176E+01, 3.250E+02, 1.053E+02
 2.850E+02, 4.296E+01, 3.250E+02, 1.095E+02
 3.000E+02, 4.431E+01, 3.250E+02, 1.138E+02
 3.150E+02, 4.566E+01, 3.250E+02, 1.179E+02
 3.301E+02, 4.710E+01, 3.250E+02, 1.220E+02
 3.450E+02, 4.860E+01, 3.250E+02, 1.260E+02
 3.600E+02, 5.016E+01, 3.250E+02, 1.299E+02
 3.750E+02, 5.170E+01, 3.250E+02, 1.337E+02
 3.900E+02, 5.346E+01, 3.250E+02, 1.375E+02
 4.050E+02, 5.524E+01, 3.250E+02, 1.412E+02
 4.200E+02, 5.702E+01, 3.250E+02, 1.448E+02
 4.350E+02, 5.877E+01, 3.250E+02, 1.484E+02
 4.500E+02, 6.059E+01, 3.250E+02, 1.519E+02
 4.650E+02, 6.243E+01, 3.250E+02, 1.553E+02
 4.800E+02, 6.439E+01, 3.250E+02, 1.586E+02
 4.950E+02, 6.635E+01, 3.250E+02, 1.619E+02
 5.100E+02, 6.838E+01, 3.250E+02, 1.651E+02
 5.250E+02, 7.043E+01, 3.250E+02, 1.683E+02
 5.400E+02, 7.258E+01, 3.250E+02, 1.714E+02
 5.550E+02, 7.475E+01, 3.250E+02, 1.744E+02
 5.700E+02, 7.690E+01, 3.250E+02, 1.774E+02
 5.850E+02, 7.913E+01, 3.250E+02, 1.803E+02
 6.000E+02, 8.143E+01, 3.250E+02, 1.831E+02
 6.150E+02, 8.377E+01, 3.250E+02, 1.859E+02
 6.300E+02, 8.615E+01, 3.250E+02, 1.887E+02
 6.450E+02, 8.851E+01, 3.250E+02, 1.914E+02
 6.600E+02, 9.090E+01, 3.250E+02, 1.940E+02
 6.750E+02, 9.320E+01, 3.250E+02, 1.965E+02
 6.900E+02, 9.558E+01, 3.250E+02, 1.990E+02
 7.050E+02, 9.807E+01, 3.250E+02, 2.014E+02
 7.200E+02, 1.005E+02, 3.250E+02, 2.037E+02
 7.350E+02, 1.030E+02, 3.250E+02, 2.061E+02
 7.500E+02, 1.056E+02, 3.250E+02, 2.084E+02
 7.650E+02, 1.081E+02, 3.250E+02, 2.106E+02
 7.800E+02, 1.107E+02, 3.250E+02, 2.128E+02
 7.950E+02, 1.131E+02, 3.250E+02, 2.149E+02
 8.100E+02, 1.156E+02, 3.250E+02, 2.169E+02
 8.250E+02, 1.182E+02, 3.250E+02, 2.189E+02
 8.400E+02, 1.208E+02, 3.250E+02, 2.209E+02
 8.550E+02, 1.235E+02, 3.250E+02, 2.228E+02
 8.701E+02, 1.261E+02, 3.250E+02, 2.247E+02
 8.850E+02, 1.287E+02, 3.250E+02, 2.266E+02
 9.000E+02, 1.314E+02, 3.250E+02, 2.284E+02
 9.150E+02, 1.338E+02, 3.250E+02, 2.301E+02
 9.300E+02, 1.364E+02, 3.250E+02, 2.318E+02
 9.450E+02, 1.390E+02, 3.250E+02, 2.335E+02
 9.600E+02, 1.417E+02, 3.250E+02, 2.351E+02
 9.750E+02, 1.441E+02, 3.250E+02, 2.367E+02
 9.900E+02, 1.466E+02, 3.250E+02, 2.382E+02
 1.005E+03, 1.491E+02, 3.250E+02, 2.397E+02
 1.020E+03, 1.516E+02, 3.250E+02, 2.411E+02
 1.035E+03, 1.542E+02, 3.250E+02, 2.425E+02
 1.050E+03, 1.567E+02, 3.250E+02, 2.439E+02
 1.065E+03, 1.591E+02, 3.250E+02, 2.452E+02
 1.080E+03, 1.615E+02, 3.250E+02, 2.464E+02
 1.095E+03, 1.638E+02, 3.250E+02, 2.476E+02
 1.110E+03, 1.662E+02, 3.250E+02, 2.488E+02
 1.125E+03, 1.684E+02, 3.250E+02, 2.500E+02
 1.140E+03, 1.707E+02, 3.250E+02, 2.511E+02
 1.155E+03, 1.731E+02, 3.250E+02, 2.522E+02
 1.170E+03, 1.755E+02, 3.250E+02, 2.534E+02
 1.185E+03, 1.778E+02, 3.250E+02, 2.545E+02
 1.200E+03, 1.801E+02, 3.250E+02, 2.556E+02
 1.215E+03, 1.822E+02, 3.250E+02, 2.566E+02
 1.230E+03, 1.844E+02, 3.250E+02, 2.576E+02
 1.245E+03, 1.867E+02, 3.250E+02, 2.586E+02
 1.260E+03, 1.888E+02, 3.250E+02, 2.596E+02
 1.275E+03, 1.908E+02, 3.250E+02, 2.604E+02
 1.290E+03, 1.925E+02, 3.250E+02, 2.611E+02
 1.305E+03, 1.945E+02, 3.250E+02, 2.619E+02
 1.320E+03, 1.967E+02, 3.250E+02, 2.628E+02
 1.335E+03, 1.988E+02, 3.250E+02, 2.637E+02
 1.350E+03, 2.008E+02, 3.250E+02, 2.646E+02
 1.365E+03, 2.027E+02, 3.250E+02, 2.654E+02
 1.380E+03, 2.045E+02, 3.250E+02, 2.661E+02
 1.395E+03, 2.063E+02, 3.250E+02, 2.668E+02
 1.410E+03, 2.082E+02, 3.250E+02, 2.676E+02
 1.425E+03, 2.102E+02, 3.250E+02, 2.683E+02
 1.440E+03, 2.119E+02, 3.250E+02, 2.690E+02
 1.455E+03, 2.135E+02, 3.250E+02, 2.696E+02
 1.470E+03, 2.152E+02, 3.250E+02, 2.702E+02
 1.485E+03, 2.170E+02, 3.250E+02, 2.709E+02
 1.500E+03, 2.187E+02, 3.250E+02, 2.716E+02
 1.515E+03, 2.203E+02, 3.250E+02, 2.721E+02
 1.530E+03, 2.219E+02, 3.250E+02, 2.728E+02
 1.545E+03, 2.236E+02, 3.250E+02, 2.734E+02
 1.560E+03, 2.252E+02, 3.250E+02, 2.740E+02
 1.575E+03, 2.268E+02, 3.250E+02, 2.746E+02
 1.590E+03, 2.280E+02, 3.250E+02, 2.749E+02
 1.605E+03, 2.294E+02, 3.250E+02, 2.753E+02
 1.620E+03, 2.309E+02, 3.250E+02, 2.758E+02
 1.635E+03, 2.323E+02, 3.250E+02, 2.763E+02
 1.650E+03, 2.337E+02, 3.250E+02, 2.768E+02
 1.665E+03, 2.348E+02, 3.250E+02, 2.771E+02
 1.680E+03, 2.361E+02, 3.250E+02, 2.775E+02
 1.695E+03, 2.375E+02, 3.250E+02, 2.780E+02
 1.710E+03, 2.388E+02, 3.250E+02, 2.785E+02
 1.725E+03, 2.401E+02, 3.250E+02, 2.789E+02
 1.740E+03, 2.412E+02, 3.250E+02, 2.793E+02
 1.755E+03, 2.424E+02, 3.250E+02, 2.797E+02
 1.770E+03, 2.436E+02, 3.250E+02, 2.802E+02
 1.785E+03, 2.449E+02, 3.250E+02, 2.806E+02
 1.800E+03, 2.460E+02, 3.250E+02, 2.810E+02
 1.815E+03, 2.469E+02, 3.250E+02, 2.814E+02
 1.830E+03, 2.481E+02, 3.250E+02, 2.818E+02
 1.845E+03, 2.492E+02, 3.250E+02, 2.822E+02
 1.860E+03, 2.503E+02, 3.250E+02, 2.825E+02
 1.875E+03, 2.513E+02, 3.250E+02, 2.829E+02
 1.890E+03, 2.521E+02, 3.250E+02, 2.831E+02
 1.905E+03, 2.529E+02, 3.250E+02, 2.833E+02
 1.920E+03, 2.540E+02, 3.250E+02, 2.837E+02
 1.935E+03, 2.548E+02, 3.250E+02, 2.839E+02
 1.950E+03, 2.558E+02, 3.250E+02, 2.843E+02
 1.965E+03, 2.567E+02, 3.250E+02, 2.846E+02
 1.980E+03, 2.577E+02, 3.250E+02, 2.849E+02
 1.995E+03, 2.585E+02, 3.250E+02, 2.852E+02
 2.010E+03, 2.594E+02, 3.250E+02, 2.855E+02
 2.025E+03, 2.601E+02, 3.250E+02, 2.858E+02
 2.040E+03, 2.609E+02, 3.250E+02, 2.860E+02
 2.055E+03, 2.617E+02, 3.250E+02, 2.863E+02
 2.070E+03, 2.622E+02, 3.250E+02, 2.864E+02
 2.085E+03, 2.630E+02, 3.250E+02, 2.866E+02
 2.100E+03, 2.638E+02, 3.250E+02, 2.869E+02
 2.115E+03, 2.645E+02, 3.250E+02, 2.871E+02
 2.130E+03, 2.651E+02, 3.250E+02, 2.874E+02
 2.145E+03, 2.657E+02, 3.250E+02, 2.875E+02
 2.160E+03, 2.661E+02, 3.250E+02, 2.875E+02
 2.175E+03, 2.667E+02, 3.250E+02, 2.877E+02
 2.190E+03, 2.675E+02, 3.250E+02, 2.879E+02
 2.205E+03, 2.681E+02, 3.250E+02, 2.882E+02
 2.220E+03, 2.687E+02, 3.250E+02, 2.884E+02
 2.235E+03, 2.694E+02, 3.250E+02, 2.886E+02
 2.250E+03, 2.700E+02, 3.250E+02, 2.888E+02
 2.265E+03, 2.706E+02, 3.250E+02, 2.890E+02
 2.280E+03, 2.712E+02, 3.250E+02, 2.892E+02
 2.295E+03, 2.718E+02, 3.250E+02, 2.894E+02
 2.310E+03, 2.723E+02, 3.250E+02, 2.897E+02
 2.325E+03, 2.729E+02, 3.250E+02, 2.898E+02
 2.340E+03, 2.733E+02, 3.250E+02, 2.900E+02
 2.355E+03, 2.737E+02, 3.250E+02, 2.901E+02
 2.370E+03, 2.742E+02, 3.250E+02, 2.903E+02
 2.385E+03, 2.747E+02, 3.250E+02, 2.905E+02
 2.400E+03, 2.752E+02, 3.250E+02, 2.906E+02
 2.415E+03, 2.755E+02, 3.250E+02, 2.907E+02
 2.430E+03, 2.756E+02, 3.250E+02, 2.906E+02
 2.445E+03, 2.760E+02, 3.250E+02, 2.907E+02
 2.460E+03, 2.765E+02, 3.250E+02, 2.908E+02
 2.475E+03, 2.770E+02, 3.250E+02, 2.910E+02
 2.490E+03, 2.775E+02, 3.250E+02, 2.911E+02
 2.505E+03, 2.778E+02, 3.250E+02, 2.912E+02
 2.520E+03, 2.780E+02, 3.250E+02, 2.913E+02
 2.535E+03, 2.784E+02, 3.250E+02, 2.914E+02
 2.550E+03, 2.788E+02, 3.250E+02, 2.915E+02
 2.565E+03, 2.789E+02, 3.250E+02, 2.915E+02
 2.580E+03, 2.793E+02, 3.250E+02, 2.917E+02
 2.595E+03, 2.797E+02, 3.250E+02, 2.917E+02
 2.610E+03, 2.799E+02, 3.250E+02, 2.917E+02
 2.625E+03, 2.802E+02, 3.250E+02, 2.918E+02
 2.640E+03, 2.806E+02, 3.250E+02, 2.919E+02
 2.655E+03, 2.805E+02, 3.250E+02, 2.919E+02
 2.670E+03, 2.809E+02, 3.250E+02, 2.920E+02
 2.685E+03, 2.810E+02, 3.250E+02, 2.920E+02
 2.700E+03, 2.813E+02, 3.250E+02, 2.921E+02
 2.715E+03, 2.814E+02, 3.250E+02, 2.920E+02
 2.730E+03, 2.814E+02, 3.250E+02, 2.920E+02
 2.745E+03, 2.816E+02, 3.250E+02, 2.919E+02
 2.760E+03, 2.815E+02, 3.250E+02, 2.918E+02
 2.775E+03, 2.816E+02, 3.250E+02, 2.917E+02
 2.790E+03, 2.820E+02, 3.250E+02, 2.918E+02
 2.805E+03, 2.823E+02, 3.250E+02, 2.919E+02
 2.820E+03, 2.825E+02, 3.250E+02, 2.920E+02
 2.835E+03, 2.826E+02, 3.250E+02, 2.919E+02
 2.850E+03, 2.826E+02, 3.250E+02, 2.918E+02
 2.865E+03, 2.829E+02, 3.250E+02, 2.919E+02
 2.880E+03, 2.832E+02, 3.250E+02, 2.921E+02
 2.895E+03, 2.835E+02, 3.250E+02, 2.922E+02
 2.910E+03, 2.838E+02, 3.250E+02, 2.924E+02
 2.925E+03, 2.840E+02, 3.250E+02, 2.925E+02
 2.940E+03, 2.839E+02, 3.250E+02, 2.924E+02
 2.955E+03, 2.840E+02, 3.250E+02, 2.924E+02
 2.970E+03, 2.842E+02, 3.250E+02, 2.925E+02
 2.985E+03, 2.845E+02, 3.250E+02, 2.926E+02
 3.000E+03, 2.846E+02, 3.250E+02, 2.926E+02
 3.015E+03, 2.846E+02, 3.250E+02, 2.927E+02
 3.030E+03, 2.849E+02, 3.250E+02, 2.928E+02
 3.045E+03, 2.851E+02, 3.250E+02, 2.929E+02
 3.060E+03, 2.850E+02, 3.250E+02, 2.929E+02
 3.075E+03, 2.852E+02, 3.250E+02, 2.930E+02
 3.090E+03, 2.853E+02, 3.250E+02, 2.930E+02
 3.105E+03, 2.853E+02, 3.250E+02, 2.930E+02
 3.120E+03, 2.854E+02, 3.250E+02, 2.930E+02
 3.135E+03, 2.857E+02, 3.250E+02, 2.932E+02
 3.150E+03, 2.860E+02, 3.250E+02, 2.933E+02
 3.165E+03, 2.860E+02, 3.250E+02, 2.933E+02
 3.180E+03, 2.859E+02, 3.250E+02, 2.932E+02
 3.195E+03, 2.860E+02, 3.250E+02, 2.932E+02
 3.210E+03, 2.860E+02, 3.250E+02, 2.931E+02
 3.225E+03, 2.857E+02, 3.250E+02, 2.929E+02
 3.240E+03, 2.857E+02, 3.250E+02, 2.928E+02
 3.255E+03, 2.860E+02, 3.250E+02, 2.928E+02
 3.270E+03, 2.863E+02, 3.250E+02, 2.929E+02
 3.285E+03, 2.865E+02, 3.250E+02, 2.931E+02
 3.300E+03, 2.866E+02, 3.250E+02, 2.931E+02
 3.315E+03, 2.866E+02, 3.250E+02, 2.931E+02
 3.330E+03, 2.864E+02, 3.250E+02, 2.930E+02
 3.345E+03, 2.865E+02, 3.250E+02, 2.930E+02
 3.360E+03, 2.866E+02, 3.250E+02, 2.930E+02
 3.375E+03, 2.865E+02, 3.139E+02, 2.928E+02
 3.390E+03, 2.862E+02, 2.918E+02, 2.920E+02
 3.405E+03, 2.865E+02, 2.698E+02, 2.908E+02
 3.420E+03, 2.863E+02, 2.477E+02, 2.889E+02
 3.435E+03, 2.861E+02, 2.257E+02, 2.865E+02
 3.450E+03, 2.855E+02, 2.036E+02, 2.837E+02
 3.465E+03, 2.844E+02, 1.828E+02, 2.804E+02
 3.480E+03, 2.833E+02, 1.780E+02, 2.771E+02
 3.495E+03, 2.826E+02, 1.780E+02, 2.740E+02
 3.510E+03, 2.814E+02, 1.780E+02, 2.709E+02
 3.525E+03, 2.806E+02, 1.780E+02, 2.680E+02
 3.540E+03, 2.791E+02, 1.780E+02, 2.650E+02
 3.555E+03, 2.778E+02, 1.780E+02, 2.622E+02
 3.570E+03, 2.765E+02, 1.780E+02, 2.595E+02
 3.585E+03, 2.751E+02, 1.780E+02, 2.569E+02
 3.600E+03, 2.737E+02, 1.780E+02, 2.544E+02
