s,C,C,C
Time,"Cable Temp","Shroud Temp","Conduit"
 0.000E+00, 3.100E+01, 3.100E+01, 3.100E+01
 1.511E+01, 3.100E+01, 6.668E+01, 3.105E+01
 3.002E+01, 3.100E+01, 1.367E+02, 3.157E+01
 4.503E+01, 3.104E+01, 2.065E+02, 3.306E+01
 6.000E+01, 3.119E+01, 2.766E+02, 3.599E+01
 7.500E+01, 3.136E+01, 3.466E+02, 4.092E+01
 9.001E+01, 3.152E+01, 4.167E+02, 4.869E+01
 1.050E+02, 3.179E+01, 4.711E+02, 6.000E+01
 1.200E+02, 3.241E+01, 4.750E+02, 7.278E+01
 1.350E+02, 3.334E+01, 4.750E+02, 8.533E+01
 1.500E+02, 3.439E+01, 4.750E+02, 9.762E+01
 1.650E+02, 3.572E+01, 4.750E+02, 1.097E+02
 1.800E+02, 3.736E+01, 4.750E+02, 1.217E+02
 1.950E+02, 3.919E+01, 4.750E+02, 1.333E+02
 2.100E+02, 4.122E+01, 4.750E+02, 1.447E+02
 2.250E+02, 4.342E+01, 4.750E+02, 1.559E+02
 2.400E+02, 4.580E+01, 4.750E+02, 1.668E+02
 2.550E+02, 4.836E+01, 4.750E+02, 1.774E+02
 2.700E+02, 5.112E+01, 4.750E+02, 1.877E+02
 2.850E+02, 5.413E+01, 4.750E+02, 1.977E+02
 3.000E+02, 5.735E+01, 4.750E+02, 2.076E+02
 3.150E+02, 6.082E+01, 4.750E+02, 2.171E+02
 3.300E+02, 6.451E+01, 4.750E+02, 2.263E+02
 3.450E+02, 6.844E+01, 4.750E+02, 2.352E+02
 3.600E+02, 7.260E+01, 4.750E+02, 2.440E+02
 3.750E+02, 7.698E+01, 4.750E+02, 2.524E+02
 3.900E+02, 8.158E+01, 4.750E+02, 2.606E+02
 4.050E+02, 8.639E+01, 4.750E+02, 2.685E+02
 4.200E+02, 9.139E+01, 4.750E+02, 2.761E+02
 4.350E+02, 9.663E+01, 4.750E+02, 2.836E+02
 4.500E+02, 1.021E+02, 4.750E+02, 2.907E+02
 4.650E+02, 1.077E+02, 4.750E+02, 2.976E+02
 4.800E+02, 1.135E+02, 4.750E+02, 3.042E+02
 4.950E+02, 1.194E+02, 4.750E+02, 3.105E+02
 5.100E+02, 1.254E+02, 4.750E+02, 3.166E+02
 5.250E+02, 1.316E+02, 4.750E+02, 3.224E+02
 5.400E+02, 1.378E+02, 4.750E+02, 3.280E+02
 5.550E+02, 1.441E+02, 4.750E+02, 3.333E+02
 5.700E+02, 1.505E+02, 4.750E+02, 3.384E+02
 5.850E+02, 1.571E+02, 4.750E+02, 3.434E+02
 6.000E+02, 1.636E+02, 4.750E+02, 3.480E+02
 6.150E+02, 1.701E+02, 4.750E+02, 3.524E+02
 6.300E+02, 1.767E+02, 4.750E+02, 3.566E+02
 6.450E+02, 1.832E+02, 4.750E+02, 3.605E+02
 6.600E+02, 1.897E+02, 4.750E+02, 3.643E+02
 6.750E+02, 1.963E+02, 4.750E+02, 3.680E+02
 6.900E+02, 2.028E+02, 4.750E+02, 3.715E+02
 7.050E+02, 2.093E+02, 4.750E+02, 3.749E+02
 7.200E+02, 2.158E+02, 4.750E+02, 3.781E+02
 7.350E+02, 2.221E+02, 4.750E+02, 3.811E+02
 7.500E+02, 2.283E+02, 4.750E+02, 3.840E+02
 7.650E+02, 2.345E+02, 4.750E+02, 3.867E+02
 7.800E+02, 2.407E+02, 4.750E+02, 3.893E+02
 7.950E+02, 2.466E+02, 4.750E+02, 3.917E+02
 8.100E+02, 2.525E+02, 4.750E+02, 3.939E+02
 8.250E+02, 2.583E+02, 4.750E+02, 3.960E+02
 8.400E+02, 2.640E+02, 4.750E+02, 3.982E+02
 8.550E+02, 2.696E+02, 4.750E+02, 4.003E+02
 8.700E+02, 2.751E+02, 4.750E+02, 4.023E+02
 8.850E+02, 2.804E+02, 4.750E+02, 4.041E+02
 9.000E+02, 2.856E+02, 4.750E+02, 4.059E+02
 9.150E+02, 2.907E+02, 4.750E+02, 4.076E+02
 9.300E+02, 2.957E+02, 4.750E+02, 4.092E+02
 9.450E+02, 3.005E+02, 4.750E+02, 4.107E+02
 9.600E+02, 3.051E+02, 4.750E+02, 4.121E+02
 9.750E+02, 3.097E+02, 4.750E+02, 4.133E+02
 9.900E+02, 3.141E+02, 4.750E+02, 4.147E+02
 1.005E+03, 3.184E+02, 4.750E+02, 4.160E+02
 1.020E+03, 3.227E+02, 4.750E+02, 4.173E+02
 1.035E+03, 3.268E+02, 4.750E+02, 4.186E+02
 1.050E+03, 3.308E+02, 4.750E+02, 4.196E+02
 1.065E+03, 3.346E+02, 4.750E+02, 4.206E+02
 1.080E+03, 3.382E+02, 4.750E+02, 4.214E+02
 1.095E+03, 3.418E+02, 4.750E+02, 4.224E+02
 1.110E+03, 3.453E+02, 4.750E+02, 4.235E+02
 1.125E+03, 3.488E+02, 4.750E+02, 4.243E+02
 1.140E+03, 3.520E+02, 4.750E+02, 4.249E+02
 1.155E+03, 3.551E+02, 4.750E+02, 4.257E+02
 1.170E+03, 3.581E+02, 4.750E+02, 4.265E+02
 1.185E+03, 3.610E+02, 4.750E+02, 4.271E+02
 1.200E+03, 3.639E+02, 4.750E+02, 4.278E+02
 1.215E+03, 3.665E+02, 4.750E+02, 4.283E+02
 1.230E+03, 3.690E+02, 4.750E+02, 4.288E+02
 1.245E+03, 3.716E+02, 4.750E+02, 4.294E+02
 1.260E+03, 3.740E+02, 4.750E+02, 4.300E+02
 1.275E+03, 3.764E+02, 4.750E+02, 4.305E+02
 1.290E+03, 3.788E+02, 4.750E+02, 4.312E+02
 1.305E+03, 3.811E+02, 4.750E+02, 4.317E+02
 1.320E+03, 3.833E+02, 4.750E+02, 4.323E+02
 1.335E+03, 3.854E+02, 4.750E+02, 4.328E+02
 1.350E+03, 3.875E+02, 4.750E+02, 4.332E+02
 1.365E+03, 3.894E+02, 4.750E+02, 4.337E+02
 1.380E+03, 3.913E+02, 4.750E+02, 4.341E+02
 1.395E+03, 3.930E+02, 4.750E+02, 4.344E+02
 1.410E+03, 3.947E+02, 4.750E+02, 4.348E+02
 1.425E+03, 3.963E+02, 4.750E+02, 4.351E+02
 1.440E+03, 3.979E+02, 4.750E+02, 4.354E+02
 1.455E+03, 3.994E+02, 4.750E+02, 4.358E+02
 1.470E+03, 4.009E+02, 4.750E+02, 4.362E+02
 1.485E+03, 4.023E+02, 4.750E+02, 4.364E+02
 1.500E+03, 4.037E+02, 4.750E+02, 4.367E+02
 1.515E+03, 4.050E+02, 4.750E+02, 4.371E+02
 1.530E+03, 4.063E+02, 4.750E+02, 4.373E+02
 1.545E+03, 4.075E+02, 4.750E+02, 4.375E+02
 1.560E+03, 4.087E+02, 4.750E+02, 4.377E+02
 1.575E+03, 4.098E+02, 4.750E+02, 4.379E+02
 1.590E+03, 4.109E+02, 4.750E+02, 4.381E+02
 1.605E+03, 4.120E+02, 4.750E+02, 4.384E+02
 1.620E+03, 4.130E+02, 4.750E+02, 4.387E+02
 1.635E+03, 4.140E+02, 4.750E+02, 4.389E+02
 1.650E+03, 4.151E+02, 4.750E+02, 4.392E+02
 1.665E+03, 4.160E+02, 4.750E+02, 4.394E+02
 1.680E+03, 4.168E+02, 4.750E+02, 4.394E+02
 1.695E+03, 4.175E+02, 4.750E+02, 4.395E+02
 1.710E+03, 4.182E+02, 4.750E+02, 4.397E+02
 1.725E+03, 4.190E+02, 4.750E+02, 4.398E+02
 1.740E+03, 4.197E+02, 4.750E+02, 4.399E+02
 1.755E+03, 4.204E+02, 4.750E+02, 4.401E+02
 1.770E+03, 4.211E+02, 4.750E+02, 4.402E+02
 1.785E+03, 4.216E+02, 4.750E+02, 4.402E+02
 1.800E+03, 4.222E+02, 4.750E+02, 4.403E+02
 1.815E+03, 4.228E+02, 4.750E+02, 4.404E+02
 1.830E+03, 4.233E+02, 4.750E+02, 4.405E+02
 1.845E+03, 4.239E+02, 4.750E+02, 4.407E+02
 1.860E+03, 4.244E+02, 4.750E+02, 4.408E+02
 1.875E+03, 4.249E+02, 4.750E+02, 4.408E+02
 1.890E+03, 4.253E+02, 4.750E+02, 4.409E+02
 1.905E+03, 4.257E+02, 4.750E+02, 4.409E+02
 1.920E+03, 4.262E+02, 4.750E+02, 4.411E+02
 1.935E+03, 4.266E+02, 4.750E+02, 4.411E+02
 1.950E+03, 4.270E+02, 4.750E+02, 4.412E+02
 1.965E+03, 4.274E+02, 4.750E+02, 4.413E+02
 1.980E+03, 4.278E+02, 4.750E+02, 4.413E+02
 1.995E+03, 4.282E+02, 4.750E+02, 4.415E+02
 2.010E+03, 4.286E+02, 4.750E+02, 4.416E+02
 2.025E+03, 4.290E+02, 4.750E+02, 4.417E+02
 2.040E+03, 4.294E+02, 4.750E+02, 4.418E+02
 2.055E+03, 4.297E+02, 4.750E+02, 4.418E+02
 2.070E+03, 4.300E+02, 4.750E+02, 4.419E+02
 2.085E+03, 4.303E+02, 4.750E+02, 4.420E+02
 2.100E+03, 4.306E+02, 4.750E+02, 4.421E+02
 2.115E+03, 4.310E+02, 4.750E+02, 4.422E+02
 2.130E+03, 4.312E+02, 4.750E+02, 4.421E+02
 2.145E+03, 4.313E+02, 4.750E+02, 4.421E+02
 2.160E+03, 4.316E+02, 4.750E+02, 4.423E+02
 2.175E+03, 4.319E+02, 4.750E+02, 4.425E+02
 2.190E+03, 4.323E+02, 4.750E+02, 4.426E+02
 2.205E+03, 4.326E+02, 4.750E+02, 4.427E+02
 2.220E+03, 4.328E+02, 4.750E+02, 4.426E+02
 2.235E+03, 4.329E+02, 4.750E+02, 4.426E+02
 2.250E+03, 4.330E+02, 4.750E+02, 4.426E+02
 2.265E+03, 4.332E+02, 4.750E+02, 4.426E+02
 2.280E+03, 4.333E+02, 4.750E+02, 4.427E+02
 2.295E+03, 4.335E+02, 4.750E+02, 4.427E+02
 2.310E+03, 4.337E+02, 4.750E+02, 4.427E+02
 2.325E+03, 4.338E+02, 4.750E+02, 4.426E+02
 2.340E+03, 4.338E+02, 4.750E+02, 4.425E+02
 2.355E+03, 4.340E+02, 4.750E+02, 4.425E+02
 2.370E+03, 4.341E+02, 4.750E+02, 4.426E+02
 2.385E+03, 4.343E+02, 4.750E+02, 4.427E+02
 2.400E+03, 4.343E+02, 4.750E+02, 4.427E+02
 2.415E+03, 4.345E+02, 4.750E+02, 4.427E+02
 2.430E+03, 4.346E+02, 4.750E+02, 4.426E+02
 2.445E+03, 4.346E+02, 4.750E+02, 4.425E+02
 2.460E+03, 4.346E+02, 4.750E+02, 4.425E+02
 2.475E+03, 4.348E+02, 4.750E+02, 4.426E+02
 2.490E+03, 4.349E+02, 4.750E+02, 4.426E+02
 2.505E+03, 4.349E+02, 4.750E+02, 4.425E+02
 2.520E+03, 4.350E+02, 4.750E+02, 4.425E+02
 2.535E+03, 4.352E+02, 4.750E+02, 4.426E+02
 2.550E+03, 4.353E+02, 4.750E+02, 4.427E+02
 2.565E+03, 4.354E+02, 4.750E+02, 4.428E+02
 2.580E+03, 4.353E+02, 4.750E+02, 4.428E+02
 2.595E+03, 4.354E+02, 4.750E+02, 4.429E+02
 2.610E+03, 4.355E+02, 4.750E+02, 4.429E+02
 2.625E+03, 4.356E+02, 4.750E+02, 4.429E+02
 2.640E+03, 4.357E+02, 4.750E+02, 4.430E+02
 2.655E+03, 4.358E+02, 4.750E+02, 4.429E+02
 2.670E+03, 4.358E+02, 4.750E+02, 4.429E+02
 2.685E+03, 4.359E+02, 4.750E+02, 4.430E+02
 2.700E+03, 4.360E+02, 4.750E+02, 4.431E+02
 2.715E+03, 4.361E+02, 4.750E+02, 4.431E+02
 2.730E+03, 4.360E+02, 4.750E+02, 4.431E+02
 2.745E+03, 4.360E+02, 4.750E+02, 4.430E+02
 2.760E+03, 4.362E+02, 4.750E+02, 4.431E+02
 2.775E+03, 4.362E+02, 4.750E+02, 4.430E+02
 2.790E+03, 4.361E+02, 4.750E+02, 4.429E+02
 2.805E+03, 4.360E+02, 4.750E+02, 4.429E+02
 2.820E+03, 4.359E+02, 4.741E+02, 4.427E+02
 2.835E+03, 4.358E+02, 4.701E+02, 4.423E+02
 2.850E+03, 4.358E+02, 4.659E+02, 4.420E+02
 2.865E+03, 4.358E+02, 4.616E+02, 4.413E+02
 2.880E+03, 4.357E+02, 4.574E+02, 4.404E+02
 2.895E+03, 4.357E+02, 4.532E+02, 4.395E+02
 2.910E+03, 4.356E+02, 4.490E+02, 4.382E+02
 2.925E+03, 4.353E+02, 4.448E+02, 4.368E+02
 2.940E+03, 4.350E+02, 4.406E+02, 4.353E+02
 2.955E+03, 4.346E+02, 4.363E+02, 4.336E+02
 2.970E+03, 4.342E+02, 4.321E+02, 4.318E+02
 2.985E+03, 4.336E+02, 4.279E+02, 4.300E+02
 3.000E+03, 4.330E+02, 4.237E+02, 4.279E+02
 3.015E+03, 4.323E+02, 4.195E+02, 4.259E+02
 3.030E+03, 4.316E+02, 4.153E+02, 4.237E+02
 3.045E+03, 4.305E+02, 4.111E+02, 4.213E+02
 3.060E+03, 4.295E+02, 4.068E+02, 4.189E+02
 3.075E+03, 4.284E+02, 4.026E+02, 4.165E+02
 3.090E+03, 4.273E+02, 3.984E+02, 4.139E+02
 3.105E+03, 4.260E+02, 3.942E+02, 4.114E+02
 3.120E+03, 4.249E+02, 3.900E+02, 4.089E+02
 3.135E+03, 4.237E+02, 3.858E+02, 4.063E+02
 3.150E+03, 4.223E+02, 3.815E+02, 4.037E+02
 3.165E+03, 4.210E+02, 3.773E+02, 4.011E+02
 3.180E+03, 4.196E+02, 3.731E+02, 3.985E+02
 3.195E+03, 4.182E+02, 3.689E+02, 3.958E+02
 3.210E+03, 4.166E+02, 3.647E+02, 3.930E+02
 3.225E+03, 4.149E+02, 3.605E+02, 3.901E+02
 3.240E+03, 4.130E+02, 3.563E+02, 3.872E+02
 3.255E+03, 4.112E+02, 3.520E+02, 3.842E+02
 3.270E+03, 4.095E+02, 3.478E+02, 3.815E+02
 3.285E+03, 4.078E+02, 3.436E+02, 3.788E+02
 3.300E+03, 4.062E+02, 3.394E+02, 3.760E+02
 3.315E+03, 4.044E+02, 3.352E+02, 3.732E+02
 3.330E+03, 4.025E+02, 3.310E+02, 3.703E+02
 3.345E+03, 4.006E+02, 3.268E+02, 3.675E+02
 3.360E+03, 3.988E+02, 3.225E+02, 3.647E+02
 3.375E+03, 3.967E+02, 3.183E+02, 3.616E+02
 3.390E+03, 3.944E+02, 3.141E+02, 3.585E+02
 3.405E+03, 3.922E+02, 3.099E+02, 3.555E+02
 3.420E+03, 3.902E+02, 3.057E+02, 3.526E+02
 3.435E+03, 3.881E+02, 3.015E+02, 3.497E+02
 3.450E+03, 3.861E+02, 2.972E+02, 3.468E+02
 3.465E+03, 3.840E+02, 2.930E+02, 3.438E+02
 3.480E+03, 3.819E+02, 2.888E+02, 3.411E+02
 3.495E+03, 3.800E+02, 2.846E+02, 3.383E+02
 3.510E+03, 3.779E+02, 2.804E+02, 3.354E+02
 3.525E+03, 3.757E+02, 2.762E+02, 3.325E+02
 3.540E+03, 3.736E+02, 2.719E+02, 3.297E+02
 3.555E+03, 3.713E+02, 2.677E+02, 3.268E+02
 3.570E+03, 3.692E+02, 2.635E+02, 3.240E+02
 3.585E+03, 3.671E+02, 2.593E+02, 3.211E+02
 3.600E+03, 3.647E+02, 2.551E+02, 3.181E+02
