s,C,C,C
Time,"Cable Temp","Shroud Temp","Conduit"
 0.000E+00, 3.100E+01, 3.100E+01, 3.100E+01
 1.510E+01, 3.100E+01, 6.865E+01, 3.106E+01
 3.005E+01, 3.100E+01, 1.426E+02, 3.163E+01
 4.505E+01, 3.101E+01, 2.164E+02, 3.327E+01
 6.004E+01, 3.103E+01, 2.903E+02, 3.652E+01
 7.500E+01, 3.112E+01, 3.642E+02, 4.213E+01
 9.001E+01, 3.132E+01, 4.381E+02, 5.099E+01
 1.050E+02, 3.167E+01, 4.750E+02, 6.327E+01
 1.200E+02, 3.215E+01, 4.750E+02, 7.606E+01
 1.350E+02, 3.281E+01, 4.750E+02, 8.868E+01
 1.500E+02, 3.364E+01, 4.750E+02, 1.010E+02
 1.650E+02, 3.466E+01, 4.750E+02, 1.131E+02
 1.800E+02, 3.583E+01, 4.750E+02, 1.249E+02
 1.950E+02, 3.714E+01, 4.750E+02, 1.365E+02
 2.100E+02, 3.866E+01, 4.750E+02, 1.479E+02
 2.250E+02, 4.038E+01, 4.750E+02, 1.589E+02
 2.400E+02, 4.230E+01, 4.750E+02, 1.697E+02
 2.550E+02, 4.443E+01, 4.750E+02, 1.802E+02
 2.700E+02, 4.675E+01, 4.750E+02, 1.905E+02
 2.850E+02, 4.926E+01, 4.750E+02, 2.004E+02
 3.000E+02, 5.197E+01, 4.750E+02, 2.101E+02
 3.150E+02, 5.489E+01, 4.750E+02, 2.196E+02
 3.300E+02, 5.801E+01, 4.750E+02, 2.287E+02
 3.450E+02, 6.134E+01, 4.750E+02, 2.376E+02
 3.600E+02, 6.487E+01, 4.750E+02, 2.462E+02
 3.750E+02, 6.863E+01, 4.750E+02, 2.546E+02
 3.900E+02, 7.260E+01, 4.750E+02, 2.627E+02
 4.050E+02, 7.674E+01, 4.750E+02, 2.705E+02
 4.200E+02, 8.109E+01, 4.750E+02, 2.780E+02
 4.350E+02, 8.562E+01, 4.750E+02, 2.853E+02
 4.500E+02, 9.033E+01, 4.750E+02, 2.924E+02
 4.650E+02, 9.521E+01, 4.750E+02, 2.990E+02
 4.800E+02, 1.002E+02, 4.750E+02, 3.055E+02
 4.950E+02, 1.054E+02, 4.750E+02, 3.117E+02
 5.100E+02, 1.108E+02, 4.750E+02, 3.177E+02
 5.250E+02, 1.162E+02, 4.750E+02, 3.234E+02
 5.400E+02, 1.218E+02, 4.750E+02, 3.289E+02
 5.550E+02, 1.274E+02, 4.750E+02, 3.341E+02
 5.700E+02, 1.331E+02, 4.750E+02, 3.391E+02
 5.850E+02, 1.389E+02, 4.750E+02, 3.438E+02
 6.000E+02, 1.448E+02, 4.750E+02, 3.484E+02
 6.150E+02, 1.508E+02, 4.750E+02, 3.528E+02
 6.300E+02, 1.567E+02, 4.750E+02, 3.569E+02
 6.450E+02, 1.627E+02, 4.750E+02, 3.608E+02
 6.600E+02, 1.687E+02, 4.750E+02, 3.646E+02
 6.750E+02, 1.747E+02, 4.750E+02, 3.682E+02
 6.900E+02, 1.806E+02, 4.750E+02, 3.716E+02
 7.050E+02, 1.866E+02, 4.750E+02, 3.748E+02
 7.200E+02, 1.926E+02, 4.750E+02, 3.779E+02
 7.350E+02, 1.986E+02, 4.750E+02, 3.808E+02
 7.500E+02, 2.045E+02, 4.750E+02, 3.836E+02
 7.650E+02, 2.103E+02, 4.750E+02, 3.863E+02
 7.800E+02, 2.161E+02, 4.750E+02, 3.888E+02
 7.950E+02, 2.218E+02, 4.750E+02, 3.912E+02
 8.100E+02, 2.274E+02, 4.750E+02, 3.935E+02
 8.250E+02, 2.329E+02, 4.750E+02, 3.957E+02
 8.400E+02, 2.384E+02, 4.750E+02, 3.977E+02
 8.550E+02, 2.438E+02, 4.750E+02, 3.997E+02
 8.700E+02, 2.491E+02, 4.750E+02, 4.016E+02
 8.850E+02, 2.543E+02, 4.750E+02, 4.034E+02
 9.000E+02, 2.594E+02, 4.750E+02, 4.051E+02
 9.150E+02, 2.644E+02, 4.750E+02, 4.066E+02
 9.300E+02, 2.693E+02, 4.750E+02, 4.082E+02
 9.450E+02, 2.741E+02, 4.750E+02, 4.096E+02
 9.600E+02, 2.788E+02, 4.750E+02, 4.111E+02
 9.750E+02, 2.834E+02, 4.750E+02, 4.125E+02
 9.900E+02, 2.879E+02, 4.750E+02, 4.137E+02
 1.005E+03, 2.923E+02, 4.750E+02, 4.150E+02
 1.020E+03, 2.966E+02, 4.750E+02, 4.161E+02
 1.035E+03, 3.007E+02, 4.750E+02, 4.172E+02
 1.050E+03, 3.048E+02, 4.750E+02, 4.183E+02
 1.065E+03, 3.088E+02, 4.750E+02, 4.194E+02
 1.080E+03, 3.128E+02, 4.750E+02, 4.205E+02
 1.095E+03, 3.166E+02, 4.750E+02, 4.214E+02
 1.110E+03, 3.203E+02, 4.750E+02, 4.223E+02
 1.125E+03, 3.239E+02, 4.750E+02, 4.231E+02
 1.140E+03, 3.274E+02, 4.750E+02, 4.239E+02
 1.155E+03, 3.307E+02, 4.750E+02, 4.246E+02
 1.170E+03, 3.341E+02, 4.750E+02, 4.254E+02
 1.185E+03, 3.374E+02, 4.750E+02, 4.262E+02
 1.200E+03, 3.406E+02, 4.750E+02, 4.269E+02
 1.215E+03, 3.437E+02, 4.750E+02, 4.276E+02
 1.230E+03, 3.467E+02, 4.750E+02, 4.283E+02
 1.245E+03, 3.496E+02, 4.750E+02, 4.289E+02
 1.260E+03, 3.524E+02, 4.750E+02, 4.294E+02
 1.275E+03, 3.550E+02, 4.750E+02, 4.298E+02
 1.290E+03, 3.577E+02, 4.750E+02, 4.304E+02
 1.305E+03, 3.602E+02, 4.750E+02, 4.309E+02
 1.320E+03, 3.627E+02, 4.750E+02, 4.314E+02
 1.335E+03, 3.651E+02, 4.750E+02, 4.319E+02
 1.350E+03, 3.675E+02, 4.750E+02, 4.323E+02
 1.365E+03, 3.697E+02, 4.750E+02, 4.327E+02
 1.380E+03, 3.718E+02, 4.750E+02, 4.330E+02
 1.395E+03, 3.739E+02, 4.750E+02, 4.334E+02
 1.410E+03, 3.760E+02, 4.750E+02, 4.338E+02
 1.425E+03, 3.780E+02, 4.750E+02, 4.343E+02
 1.440E+03, 3.800E+02, 4.750E+02, 4.347E+02
 1.455E+03, 3.819E+02, 4.750E+02, 4.352E+02
 1.470E+03, 3.838E+02, 4.750E+02, 4.355E+02
 1.485E+03, 3.856E+02, 4.750E+02, 4.357E+02
 1.500E+03, 3.873E+02, 4.750E+02, 4.359E+02
 1.515E+03, 3.889E+02, 4.750E+02, 4.362E+02
 1.530E+03, 3.905E+02, 4.750E+02, 4.365E+02
 1.545E+03, 3.921E+02, 4.750E+02, 4.368E+02
 1.560E+03, 3.936E+02, 4.750E+02, 4.372E+02
 1.575E+03, 3.952E+02, 4.750E+02, 4.375E+02
 1.590E+03, 3.966E+02, 4.750E+02, 4.377E+02
 1.605E+03, 3.981E+02, 4.750E+02, 4.380E+02
 1.620E+03, 3.995E+02, 4.750E+02, 4.383E+02
 1.635E+03, 4.008E+02, 4.750E+02, 4.386E+02
 1.650E+03, 4.021E+02, 4.750E+02, 4.388E+02
 1.665E+03, 4.033E+02, 4.750E+02, 4.389E+02
 1.680E+03, 4.044E+02, 4.750E+02, 4.391E+02
 1.695E+03, 4.056E+02, 4.750E+02, 4.395E+02
 1.710E+03, 4.068E+02, 4.750E+02, 4.397E+02
 1.725E+03, 4.079E+02, 4.750E+02, 4.399E+02
 1.740E+03, 4.090E+02, 4.750E+02, 4.402E+02
 1.755E+03, 4.100E+02, 4.750E+02, 4.403E+02
 1.770E+03, 4.109E+02, 4.750E+02, 4.404E+02
 1.785E+03, 4.118E+02, 4.750E+02, 4.405E+02
 1.800E+03, 4.127E+02, 4.750E+02, 4.406E+02
 1.815E+03, 4.136E+02, 4.750E+02, 4.407E+02
 1.830E+03, 4.144E+02, 4.750E+02, 4.409E+02
 1.845E+03, 4.153E+02, 4.750E+02, 4.411E+02
 1.860E+03, 4.161E+02, 4.750E+02, 4.412E+02
 1.875E+03, 4.169E+02, 4.750E+02, 4.414E+02
 1.890E+03, 4.176E+02, 4.750E+02, 4.415E+02
 1.905E+03, 4.184E+02, 4.750E+02, 4.416E+02
 1.920E+03, 4.191E+02, 4.750E+02, 4.418E+02
 1.935E+03, 4.198E+02, 4.750E+02, 4.420E+02
 1.950E+03, 4.205E+02, 4.750E+02, 4.421E+02
 1.965E+03, 4.211E+02, 4.750E+02, 4.420E+02
 1.980E+03, 4.217E+02, 4.750E+02, 4.421E+02
 1.995E+03, 4.222E+02, 4.750E+02, 4.422E+02
 2.010E+03, 4.227E+02, 4.750E+02, 4.424E+02
 2.025E+03, 4.234E+02, 4.750E+02, 4.425E+02
 2.040E+03, 4.239E+02, 4.750E+02, 4.427E+02
 2.055E+03, 4.245E+02, 4.750E+02, 4.429E+02
 2.070E+03, 4.251E+02, 4.750E+02, 4.430E+02
 2.085E+03, 4.255E+02, 4.750E+02, 4.430E+02
 2.100E+03, 4.260E+02, 4.750E+02, 4.431E+02
 2.115E+03, 4.265E+02, 4.750E+02, 4.431E+02
 2.130E+03, 4.269E+02, 4.750E+02, 4.432E+02
 2.145E+03, 4.273E+02, 4.750E+02, 4.432E+02
 2.160E+03, 4.277E+02, 4.750E+02, 4.432E+02
 2.175E+03, 4.280E+02, 4.750E+02, 4.432E+02
 2.190E+03, 4.284E+02, 4.750E+02, 4.433E+02
 2.205E+03, 4.288E+02, 4.750E+02, 4.434E+02
 2.220E+03, 4.291E+02, 4.750E+02, 4.434E+02
 2.235E+03, 4.294E+02, 4.750E+02, 4.434E+02
 2.250E+03, 4.297E+02, 4.750E+02, 4.435E+02
 2.265E+03, 4.301E+02, 4.750E+02, 4.436E+02
 2.280E+03, 4.304E+02, 4.750E+02, 4.436E+02
 2.295E+03, 4.306E+02, 4.750E+02, 4.437E+02
 2.310E+03, 4.310E+02, 4.750E+02, 4.439E+02
 2.325E+03, 4.313E+02, 4.750E+02, 4.439E+02
 2.340E+03, 4.316E+02, 4.750E+02, 4.440E+02
 2.355E+03, 4.320E+02, 4.750E+02, 4.441E+02
 2.370E+03, 4.322E+02, 4.750E+02, 4.442E+02
 2.385E+03, 4.325E+02, 4.750E+02, 4.443E+02
 2.400E+03, 4.328E+02, 4.750E+02, 4.443E+02
 2.415E+03, 4.331E+02, 4.750E+02, 4.443E+02
 2.430E+03, 4.333E+02, 4.750E+02, 4.444E+02
 2.445E+03, 4.336E+02, 4.750E+02, 4.446E+02
 2.460E+03, 4.339E+02, 4.750E+02, 4.446E+02
 2.475E+03, 4.341E+02, 4.750E+02, 4.447E+02
 2.490E+03, 4.343E+02, 4.750E+02, 4.447E+02
 2.505E+03, 4.345E+02, 4.750E+02, 4.447E+02
 2.520E+03, 4.347E+02, 4.750E+02, 4.448E+02
 2.535E+03, 4.349E+02, 4.750E+02, 4.448E+02
 2.550E+03, 4.351E+02, 4.750E+02, 4.449E+02
 2.565E+03, 4.353E+02, 4.750E+02, 4.449E+02
 2.580E+03, 4.354E+02, 4.750E+02, 4.449E+02
 2.595E+03, 4.356E+02, 4.750E+02, 4.450E+02
 2.610E+03, 4.358E+02, 4.750E+02, 4.449E+02
 2.625E+03, 4.360E+02, 4.750E+02, 4.449E+02
 2.640E+03, 4.361E+02, 4.750E+02, 4.449E+02
 2.655E+03, 4.362E+02, 4.750E+02, 4.449E+02
 2.670E+03, 4.364E+02, 4.750E+02, 4.449E+02
 2.685E+03, 4.366E+02, 4.750E+02, 4.449E+02
 2.700E+03, 4.368E+02, 4.750E+02, 4.451E+02
 2.715E+03, 4.370E+02, 4.750E+02, 4.451E+02
 2.730E+03, 4.371E+02, 4.750E+02, 4.452E+02
 2.745E+03, 4.372E+02, 4.750E+02, 4.452E+02
 2.760E+03, 4.373E+02, 4.750E+02, 4.453E+02
 2.775E+03, 4.375E+02, 4.750E+02, 4.453E+02
 2.790E+03, 4.375E+02, 4.750E+02, 4.453E+02
 2.805E+03, 4.376E+02, 4.750E+02, 4.453E+02
 2.820E+03, 4.377E+02, 4.750E+02, 4.453E+02
 2.835E+03, 4.378E+02, 4.750E+02, 4.453E+02
 2.850E+03, 4.378E+02, 4.750E+02, 4.453E+02
 2.865E+03, 4.379E+02, 4.750E+02, 4.454E+02
 2.880E+03, 4.381E+02, 4.750E+02, 4.455E+02
 2.895E+03, 4.382E+02, 4.750E+02, 4.455E+02
 2.910E+03, 4.383E+02, 4.750E+02, 4.455E+02
 2.925E+03, 4.383E+02, 4.750E+02, 4.455E+02
 2.940E+03, 4.385E+02, 4.750E+02, 4.456E+02
 2.955E+03, 4.386E+02, 4.750E+02, 4.456E+02
 2.970E+03, 4.387E+02, 4.750E+02, 4.456E+02
 2.985E+03, 4.388E+02, 4.715E+02, 4.455E+02
 3.000E+03, 4.388E+02, 4.646E+02, 4.450E+02
 3.015E+03, 4.388E+02, 4.576E+02, 4.441E+02
 3.030E+03, 4.388E+02, 4.507E+02, 4.430E+02
 3.045E+03, 4.387E+02, 4.438E+02, 4.413E+02
 3.060E+03, 4.385E+02, 4.368E+02, 4.393E+02
 3.075E+03, 4.382E+02, 4.299E+02, 4.372E+02
 3.090E+03, 4.378E+02, 4.230E+02, 4.350E+02
 3.105E+03, 4.373E+02, 4.160E+02, 4.325E+02
 3.120E+03, 4.368E+02, 4.091E+02, 4.298E+02
 3.135E+03, 4.361E+02, 4.021E+02, 4.268E+02
 3.150E+03, 4.353E+02, 3.952E+02, 4.238E+02
 3.165E+03, 4.344E+02, 3.883E+02, 4.206E+02
 3.180E+03, 4.334E+02, 3.813E+02, 4.174E+02
 3.195E+03, 4.323E+02, 3.744E+02, 4.140E+02
 3.210E+03, 4.312E+02, 3.674E+02, 4.105E+02
 3.225E+03, 4.299E+02, 3.605E+02, 4.069E+02
 3.240E+03, 4.284E+02, 3.536E+02, 4.032E+02
 3.255E+03, 4.268E+02, 3.466E+02, 3.994E+02
 3.270E+03, 4.252E+02, 3.397E+02, 3.956E+02
 3.285E+03, 4.236E+02, 3.328E+02, 3.918E+02
 3.300E+03, 4.219E+02, 3.258E+02, 3.880E+02
 3.315E+03, 4.201E+02, 3.189E+02, 3.841E+02
 3.330E+03, 4.182E+02, 3.119E+02, 3.801E+02
 3.345E+03, 4.162E+02, 3.050E+02, 3.762E+02
 3.360E+03, 4.143E+02, 2.981E+02, 3.723E+02
 3.375E+03, 4.122E+02, 2.911E+02, 3.684E+02
 3.390E+03, 4.101E+02, 2.842E+02, 3.643E+02
 3.405E+03, 4.078E+02, 2.773E+02, 3.602E+02
 3.420E+03, 4.056E+02, 2.703E+02, 3.563E+02
 3.435E+03, 4.034E+02, 2.634E+02, 3.523E+02
 3.450E+03, 4.012E+02, 2.564E+02, 3.484E+02
 3.465E+03, 3.990E+02, 2.530E+02, 3.445E+02
 3.480E+03, 3.966E+02, 2.530E+02, 3.407E+02
 3.495E+03, 3.942E+02, 2.530E+02, 3.370E+02
 3.510E+03, 3.919E+02, 2.530E+02, 3.336E+02
 3.525E+03, 3.896E+02, 2.530E+02, 3.304E+02
 3.540E+03, 3.873E+02, 2.530E+02, 3.273E+02
 3.555E+03, 3.850E+02, 2.530E+02, 3.243E+02
 3.570E+03, 3.827E+02, 2.530E+02, 3.214E+02
 3.585E+03, 3.804E+02, 2.530E+02, 3.186E+02
 3.600E+03, 3.781E+02, 2.530E+02, 3.160E+02
