s,C,C,C
Time,"Cable Temp","Shroud Temp","Conduit"
 0.000E+00, 3.100E+01, 3.100E+01, 3.100E+01
 1.502E+01, 3.099E+01, 7.149E+01, 3.110E+01
 3.008E+01, 3.100E+01, 1.517E+02, 3.174E+01
 4.500E+01, 3.105E+01, 2.319E+02, 3.357E+01
 6.001E+01, 3.119E+01, 3.073E+02, 3.726E+01
 7.504E+01, 3.152E+01, 3.250E+02, 4.250E+01
 9.003E+01, 3.209E+01, 3.250E+02, 4.786E+01
 1.050E+02, 3.262E+01, 3.250E+02, 5.306E+01
 1.200E+02, 3.323E+01, 3.250E+02, 5.817E+01
 1.350E+02, 3.394E+01, 3.250E+02, 6.324E+01
 1.500E+02, 3.473E+01, 3.250E+02, 6.825E+01
 1.650E+02, 3.551E+01, 3.250E+02, 7.316E+01
 1.800E+02, 3.644E+01, 3.250E+02, 7.800E+01
 1.950E+02, 3.735E+01, 3.250E+02, 8.274E+01
 2.100E+02, 3.825E+01, 3.250E+02, 8.745E+01
 2.250E+02, 3.915E+01, 3.250E+02, 9.208E+01
 2.400E+02, 4.030E+01, 3.250E+02, 9.658E+01
 2.550E+02, 4.137E+01, 3.250E+02, 1.010E+02
 2.700E+02, 4.263E+01, 3.250E+02, 1.054E+02
 2.850E+02, 4.384E+01, 3.250E+02, 1.097E+02
 3.000E+02, 4.515E+01, 3.250E+02, 1.139E+02
 3.150E+02, 4.658E+01, 3.250E+02, 1.180E+02
 3.300E+02, 4.802E+01, 3.250E+02, 1.220E+02
 3.450E+02, 4.946E+01, 3.250E+02, 1.260E+02
 3.600E+02, 5.086E+01, 3.250E+02, 1.299E+02
 3.750E+02, 5.244E+01, 3.250E+02, 1.337E+02
 3.900E+02, 5.412E+01, 3.250E+02, 1.374E+02
 4.050E+02, 5.578E+01, 3.250E+02, 1.411E+02
 4.200E+02, 5.750E+01, 3.250E+02, 1.447E+02
 4.350E+02, 5.932E+01, 3.250E+02, 1.482E+02
 4.500E+02, 6.113E+01, 3.250E+02, 1.517E+02
 4.650E+02, 6.299E+01, 3.250E+02, 1.551E+02
 4.800E+02, 6.494E+01, 3.250E+02, 1.584E+02
 4.950E+02, 6.688E+01, 3.250E+02, 1.617E+02
 5.100E+02, 6.881E+01, 3.250E+02, 1.648E+02
 5.250E+02, 7.080E+01, 3.250E+02, 1.680E+02
 5.400E+02, 7.291E+01, 3.250E+02, 1.711E+02
 5.550E+02, 7.507E+01, 3.250E+02, 1.741E+02
 5.700E+02, 7.730E+01, 3.250E+02, 1.771E+02
 5.850E+02, 7.955E+01, 3.250E+02, 1.800E+02
 6.000E+02, 8.184E+01, 3.250E+02, 1.828E+02
 6.150E+02, 8.410E+01, 3.250E+02, 1.856E+02
 6.300E+02, 8.647E+01, 3.250E+02, 1.884E+02
 6.450E+02, 8.877E+01, 3.250E+02, 1.910E+02
 6.600E+02, 9.101E+01, 3.250E+02, 1.935E+02
 6.750E+02, 9.335E+01, 3.250E+02, 1.961E+02
 6.900E+02, 9.579E+01, 3.250E+02, 1.986E+02
 7.050E+02, 9.813E+01, 3.250E+02, 2.010E+02
 7.200E+02, 1.005E+02, 3.250E+02, 2.033E+02
 7.350E+02, 1.030E+02, 3.250E+02, 2.056E+02
 7.500E+02, 1.056E+02, 3.250E+02, 2.079E+02
 7.650E+02, 1.080E+02, 3.250E+02, 2.101E+02
 7.801E+02, 1.105E+02, 3.250E+02, 2.122E+02
 7.950E+02, 1.130E+02, 3.250E+02, 2.143E+02
 8.100E+02, 1.156E+02, 3.250E+02, 2.164E+02
 8.250E+02, 1.181E+02, 3.250E+02, 2.183E+02
 8.400E+02, 1.206E+02, 3.250E+02, 2.202E+02
 8.550E+02, 1.231E+02, 3.250E+02, 2.221E+02
 8.700E+02, 1.258E+02, 3.250E+02, 2.240E+02
 8.850E+02, 1.282E+02, 3.250E+02, 2.258E+02
 9.000E+02, 1.307E+02, 3.250E+02, 2.275E+02
 9.150E+02, 1.333E+02, 3.250E+02, 2.292E+02
 9.300E+02, 1.357E+02, 3.250E+02, 2.308E+02
 9.450E+02, 1.382E+02, 3.250E+02, 2.324E+02
 9.600E+02, 1.406E+02, 3.250E+02, 2.339E+02
 9.750E+02, 1.431E+02, 3.250E+02, 2.355E+02
 9.900E+02, 1.457E+02, 3.250E+02, 2.370E+02
 1.005E+03, 1.482E+02, 3.250E+02, 2.385E+02
 1.020E+03, 1.507E+02, 3.250E+02, 2.400E+02
 1.035E+03, 1.532E+02, 3.250E+02, 2.414E+02
 1.050E+03, 1.556E+02, 3.250E+02, 2.428E+02
 1.065E+03, 1.580E+02, 3.250E+02, 2.441E+02
 1.080E+03, 1.602E+02, 3.250E+02, 2.454E+02
 1.095E+03, 1.627E+02, 3.250E+02, 2.466E+02
 1.110E+03, 1.651E+02, 3.250E+02, 2.479E+02
 1.125E+03, 1.675E+02, 3.250E+02, 2.491E+02
 1.140E+03, 1.698E+02, 3.250E+02, 2.503E+02
 1.155E+03, 1.720E+02, 3.250E+02, 2.513E+02
 1.170E+03, 1.743E+02, 3.250E+02, 2.524E+02
 1.185E+03, 1.766E+02, 3.250E+02, 2.535E+02
 1.200E+03, 1.787E+02, 3.250E+02, 2.545E+02
 1.215E+03, 1.807E+02, 3.250E+02, 2.554E+02
 1.230E+03, 1.827E+02, 3.250E+02, 2.563E+02
 1.245E+03, 1.848E+02, 3.250E+02, 2.572E+02
 1.260E+03, 1.869E+02, 3.250E+02, 2.582E+02
 1.275E+03, 1.891E+02, 3.250E+02, 2.592E+02
 1.290E+03, 1.912E+02, 3.250E+02, 2.601E+02
 1.305E+03, 1.932E+02, 3.250E+02, 2.610E+02
 1.320E+03, 1.953E+02, 3.250E+02, 2.618E+02
 1.335E+03, 1.973E+02, 3.250E+02, 2.627E+02
 1.350E+03, 1.991E+02, 3.250E+02, 2.634E+02
 1.365E+03, 2.010E+02, 3.250E+02, 2.642E+02
 1.380E+03, 2.027E+02, 3.250E+02, 2.649E+02
 1.395E+03, 2.046E+02, 3.250E+02, 2.656E+02
 1.410E+03, 2.065E+02, 3.250E+02, 2.664E+02
 1.425E+03, 2.083E+02, 3.250E+02, 2.671E+02
 1.440E+03, 2.102E+02, 3.250E+02, 2.678E+02
 1.455E+03, 2.119E+02, 3.250E+02, 2.685E+02
 1.470E+03, 2.137E+02, 3.250E+02, 2.692E+02
 1.485E+03, 2.153E+02, 3.250E+02, 2.697E+02
 1.500E+03, 2.169E+02, 3.250E+02, 2.703E+02
 1.515E+03, 2.186E+02, 3.250E+02, 2.710E+02
 1.530E+03, 2.201E+02, 3.250E+02, 2.715E+02
 1.545E+03, 2.215E+02, 3.250E+02, 2.720E+02
 1.560E+03, 2.231E+02, 3.250E+02, 2.726E+02
 1.575E+03, 2.246E+02, 3.250E+02, 2.731E+02
 1.590E+03, 2.260E+02, 3.250E+02, 2.735E+02
 1.605E+03, 2.276E+02, 3.250E+02, 2.741E+02
 1.620E+03, 2.289E+02, 3.250E+02, 2.746E+02
 1.635E+03, 2.302E+02, 3.250E+02, 2.751E+02
 1.650E+03, 2.315E+02, 3.250E+02, 2.755E+02
 1.665E+03, 2.327E+02, 3.250E+02, 2.758E+02
 1.680E+03, 2.338E+02, 3.250E+02, 2.761E+02
 1.695E+03, 2.350E+02, 3.250E+02, 2.764E+02
 1.710E+03, 2.362E+02, 3.250E+02, 2.768E+02
 1.725E+03, 2.375E+02, 3.250E+02, 2.772E+02
 1.740E+03, 2.388E+02, 3.250E+02, 2.776E+02
 1.755E+03, 2.399E+02, 3.250E+02, 2.780E+02
 1.770E+03, 2.410E+02, 3.250E+02, 2.783E+02
 1.785E+03, 2.421E+02, 3.250E+02, 2.786E+02
 1.800E+03, 2.431E+02, 3.250E+02, 2.789E+02
 1.815E+03, 2.442E+02, 3.250E+02, 2.792E+02
 1.830E+03, 2.453E+02, 3.250E+02, 2.796E+02
 1.845E+03, 2.463E+02, 3.250E+02, 2.799E+02
 1.860E+03, 2.471E+02, 3.250E+02, 2.801E+02
 1.875E+03, 2.481E+02, 3.250E+02, 2.805E+02
 1.890E+03, 2.491E+02, 3.250E+02, 2.808E+02
 1.905E+03, 2.502E+02, 3.250E+02, 2.812E+02
 1.920E+03, 2.512E+02, 3.250E+02, 2.815E+02
 1.935E+03, 2.520E+02, 3.250E+02, 2.818E+02
 1.950E+03, 2.527E+02, 3.250E+02, 2.819E+02
 1.965E+03, 2.534E+02, 3.250E+02, 2.821E+02
 1.980E+03, 2.544E+02, 3.250E+02, 2.825E+02
 1.995E+03, 2.553E+02, 3.250E+02, 2.828E+02
 2.010E+03, 2.561E+02, 3.250E+02, 2.831E+02
 2.025E+03, 2.570E+02, 3.250E+02, 2.834E+02
 2.040E+03, 2.578E+02, 3.250E+02, 2.837E+02
 2.055E+03, 2.586E+02, 3.250E+02, 2.840E+02
 2.070E+03, 2.592E+02, 3.250E+02, 2.842E+02
 2.085E+03, 2.598E+02, 3.250E+02, 2.844E+02
 2.100E+03, 2.606E+02, 3.250E+02, 2.847E+02
 2.115E+03, 2.612E+02, 3.250E+02, 2.849E+02
 2.130E+03, 2.619E+02, 3.250E+02, 2.850E+02
 2.145E+03, 2.623E+02, 3.250E+02, 2.851E+02
 2.160E+03, 2.629E+02, 3.250E+02, 2.853E+02
 2.175E+03, 2.637E+02, 3.250E+02, 2.855E+02
 2.190E+03, 2.645E+02, 3.250E+02, 2.859E+02
 2.205E+03, 2.651E+02, 3.250E+02, 2.861E+02
 2.220E+03, 2.656E+02, 3.250E+02, 2.862E+02
 2.235E+03, 2.661E+02, 3.250E+02, 2.863E+02
 2.250E+03, 2.668E+02, 3.250E+02, 2.866E+02
 2.265E+03, 2.673E+02, 3.250E+02, 2.867E+02
 2.280E+03, 2.678E+02, 3.250E+02, 2.868E+02
 2.295E+03, 2.683E+02, 3.250E+02, 2.871E+02
 2.310E+03, 2.688E+02, 3.250E+02, 2.872E+02
 2.325E+03, 2.694E+02, 3.250E+02, 2.874E+02
 2.340E+03, 2.699E+02, 3.250E+02, 2.876E+02
 2.355E+03, 2.702E+02, 3.250E+02, 2.877E+02
 2.370E+03, 2.708E+02, 3.250E+02, 2.879E+02
 2.385E+03, 2.711E+02, 3.250E+02, 2.879E+02
 2.400E+03, 2.714E+02, 3.250E+02, 2.880E+02
 2.415E+03, 2.719E+02, 3.250E+02, 2.881E+02
 2.430E+03, 2.724E+02, 3.250E+02, 2.883E+02
 2.445E+03, 2.728E+02, 3.250E+02, 2.884E+02
 2.460E+03, 2.733E+02, 3.250E+02, 2.886E+02
 2.475E+03, 2.738E+02, 3.250E+02, 2.889E+02
 2.490E+03, 2.742E+02, 3.250E+02, 2.890E+02
 2.505E+03, 2.744E+02, 3.250E+02, 2.890E+02
 2.520E+03, 2.745E+02, 3.250E+02, 2.890E+02
 2.535E+03, 2.749E+02, 3.250E+02, 2.891E+02
 2.550E+03, 2.752E+02, 3.250E+02, 2.892E+02
 2.565E+03, 2.756E+02, 3.250E+02, 2.893E+02
 2.580E+03, 2.760E+02, 3.250E+02, 2.895E+02
 2.595E+03, 2.764E+02, 3.250E+02, 2.896E+02
 2.610E+03, 2.765E+02, 3.250E+02, 2.896E+02
 2.625E+03, 2.767E+02, 3.250E+02, 2.896E+02
 2.640E+03, 2.768E+02, 3.250E+02, 2.896E+02
 2.655E+03, 2.771E+02, 3.250E+02, 2.896E+02
 2.670E+03, 2.773E+02, 3.250E+02, 2.897E+02
 2.685E+03, 2.775E+02, 3.250E+02, 2.897E+02
 2.700E+03, 2.778E+02, 3.250E+02, 2.897E+02
 2.715E+03, 2.779E+02, 3.250E+02, 2.897E+02
 2.730E+03, 2.784E+02, 3.250E+02, 2.900E+02
 2.745E+03, 2.788E+02, 3.250E+02, 2.901E+02
 2.760E+03, 2.792E+02, 3.250E+02, 2.903E+02
 2.775E+03, 2.796E+02, 3.250E+02, 2.905E+02
 2.790E+03, 2.799E+02, 3.250E+02, 2.907E+02
 2.805E+03, 2.802E+02, 3.250E+02, 2.909E+02
 2.820E+03, 2.803E+02, 3.250E+02, 2.910E+02
 2.835E+03, 2.806E+02, 3.250E+02, 2.911E+02
 2.850E+03, 2.809E+02, 3.250E+02, 2.913E+02
 2.865E+03, 2.813E+02, 3.250E+02, 2.915E+02
 2.880E+03, 2.815E+02, 3.250E+02, 2.916E+02
 2.895E+03, 2.815E+02, 3.250E+02, 2.916E+02
 2.910E+03, 2.818E+02, 3.250E+02, 2.917E+02
 2.925E+03, 2.820E+02, 3.250E+02, 2.917E+02
 2.940E+03, 2.821E+02, 3.250E+02, 2.917E+02
 2.955E+03, 2.824E+02, 3.250E+02, 2.918E+02
 2.970E+03, 2.827E+02, 3.250E+02, 2.920E+02
 2.985E+03, 2.829E+02, 3.250E+02, 2.921E+02
 3.000E+03, 2.831E+02, 3.250E+02, 2.922E+02
 3.015E+03, 2.832E+02, 3.250E+02, 2.923E+02
 3.030E+03, 2.833E+02, 3.250E+02, 2.923E+02
 3.045E+03, 2.834E+02, 3.250E+02, 2.923E+02
 3.060E+03, 2.835E+02, 3.250E+02, 2.923E+02
 3.075E+03, 2.835E+02, 3.250E+02, 2.922E+02
 3.090E+03, 2.835E+02, 3.250E+02, 2.921E+02
 3.105E+03, 2.836E+02, 3.250E+02, 2.921E+02
 3.120E+03, 2.836E+02, 3.250E+02, 2.920E+02
 3.135E+03, 2.836E+02, 3.250E+02, 2.920E+02
 3.150E+03, 2.837E+02, 3.250E+02, 2.920E+02
 3.165E+03, 2.839E+02, 3.250E+02, 2.920E+02
 3.180E+03, 2.840E+02, 3.250E+02, 2.920E+02
 3.195E+03, 2.842E+02, 3.250E+02, 2.920E+02
 3.210E+03, 2.844E+02, 3.250E+02, 2.921E+02
 3.225E+03, 2.845E+02, 3.250E+02, 2.921E+02
 3.240E+03, 2.846E+02, 3.250E+02, 2.921E+02
 3.255E+03, 2.849E+02, 3.250E+02, 2.923E+02
 3.270E+03, 2.851E+02, 3.250E+02, 2.924E+02
 3.285E+03, 2.853E+02, 3.250E+02, 2.925E+02
 3.300E+03, 2.855E+02, 3.250E+02, 2.926E+02
 3.315E+03, 2.854E+02, 3.250E+02, 2.925E+02
 3.330E+03, 2.854E+02, 3.250E+02, 2.925E+02
 3.345E+03, 2.853E+02, 3.250E+02, 2.925E+02
 3.360E+03, 2.854E+02, 3.250E+02, 2.925E+02
 3.375E+03, 2.856E+02, 3.139E+02, 2.925E+02
 3.390E+03, 2.857E+02, 2.919E+02, 2.918E+02
 3.405E+03, 2.859E+02, 2.698E+02, 2.906E+02
 3.420E+03, 2.854E+02, 2.478E+02, 2.886E+02
 3.435E+03, 2.850E+02, 2.257E+02, 2.862E+02
 3.450E+03, 2.845E+02, 2.036E+02, 2.834E+02
 3.465E+03, 2.837E+02, 1.829E+02, 2.802E+02
 3.480E+03, 2.829E+02, 1.780E+02, 2.769E+02
 3.495E+03, 2.822E+02, 1.780E+02, 2.738E+02
 3.510E+03, 2.808E+02, 1.780E+02, 2.706E+02
 3.525E+03, 2.793E+02, 1.780E+02, 2.675E+02
 3.540E+03, 2.784E+02, 1.780E+02, 2.647E+02
 3.555E+03, 2.773E+02, 1.780E+02, 2.619E+02
 3.570E+03, 2.763E+02, 1.780E+02, 2.594E+02
 3.585E+03, 2.752E+02, 1.780E+02, 2.569E+02
 3.600E+03, 2.739E+02, 1.780E+02, 2.545E+02
