s,C,C
Time,"Cable Temp","Shroud Temp"
 0.000E+00, 2.800E+01, 2.800E+01
 1.510E+01, 2.801E+01, 6.210E+01
 3.003E+01, 2.831E+01, 1.291E+02
 4.505E+01, 2.959E+01, 1.959E+02
 6.001E+01, 3.257E+01, 2.629E+02
 7.504E+01, 3.800E+01, 3.299E+02
 9.000E+01, 4.679E+01, 3.970E+02
 1.050E+02, 6.005E+01, 4.602E+02
 1.200E+02, 7.824E+01, 4.750E+02
 1.350E+02, 9.797E+01, 4.750E+02
 1.500E+02, 1.166E+02, 4.750E+02
 1.650E+02, 1.338E+02, 4.750E+02
 1.800E+02, 1.496E+02, 4.750E+02
 1.950E+02, 1.643E+02, 4.750E+02
 2.100E+02, 1.780E+02, 4.750E+02
 2.250E+02, 1.908E+02, 4.750E+02
 2.400E+02, 2.028E+02, 4.750E+02
 2.550E+02, 2.142E+02, 4.750E+02
 2.700E+02, 2.249E+02, 4.750E+02
 2.850E+02, 2.351E+02, 4.750E+02
 3.000E+02, 2.447E+02, 4.750E+02
 3.150E+02, 2.539E+02, 4.750E+02
 3.300E+02, 2.627E+02, 4.750E+02
 3.450E+02, 2.710E+02, 4.750E+02
 3.600E+02, 2.790E+02, 4.750E+02
 3.750E+02, 2.866E+02, 4.750E+02
 3.900E+02, 2.939E+02, 4.750E+02
 4.050E+02, 3.009E+02, 4.750E+02
 4.200E+02, 3.076E+02, 4.750E+02
 4.350E+02, 3.139E+02, 4.750E+02
 4.500E+02, 3.199E+02, 4.750E+02
 4.650E+02, 3.257E+02, 4.750E+02
 4.800E+02, 3.313E+02, 4.750E+02
 4.950E+02, 3.365E+02, 4.750E+02
 5.100E+02, 3.416E+02, 4.750E+02
 5.250E+02, 3.464E+02, 4.750E+02
 5.400E+02, 3.509E+02, 4.750E+02
 5.550E+02, 3.553E+02, 4.750E+02
 5.700E+02, 3.595E+02, 4.750E+02
 5.850E+02, 3.635E+02, 4.750E+02
 6.000E+02, 3.674E+02, 4.750E+02
 6.150E+02, 3.710E+02, 4.750E+02
 6.300E+02, 3.745E+02, 4.750E+02
 6.450E+02, 3.779E+02, 4.750E+02
 6.600E+02, 3.811E+02, 4.750E+02
 6.750E+02, 3.841E+02, 4.750E+02
 6.900E+02, 3.870E+02, 4.750E+02
 7.050E+02, 3.897E+02, 4.750E+02
 7.200E+02, 3.923E+02, 4.750E+02
 7.350E+02, 3.949E+02, 4.750E+02
 7.500E+02, 3.973E+02, 4.750E+02
 7.650E+02, 3.995E+02, 4.750E+02
 7.800E+02, 4.016E+02, 4.750E+02
 7.950E+02, 4.037E+02, 4.750E+02
 8.100E+02, 4.057E+02, 4.750E+02
 8.250E+02, 4.076E+02, 4.750E+02
 8.400E+02, 4.094E+02, 4.750E+02
 8.550E+02, 4.111E+02, 4.750E+02
 8.700E+02, 4.128E+02, 4.750E+02
 8.850E+02, 4.143E+02, 4.750E+02
 9.000E+02, 4.158E+02, 4.750E+02
 9.150E+02, 4.172E+02, 4.750E+02
 9.300E+02, 4.186E+02, 4.750E+02
 9.450E+02, 4.199E+02, 4.750E+02
 9.600E+02, 4.211E+02, 4.750E+02
 9.750E+02, 4.223E+02, 4.750E+02
 9.900E+02, 4.234E+02, 4.750E+02
 1.005E+03, 4.244E+02, 4.750E+02
 1.020E+03, 4.254E+02, 4.750E+02
 1.035E+03, 4.263E+02, 4.750E+02
 1.050E+03, 4.272E+02, 4.750E+02
 1.065E+03, 4.280E+02, 4.750E+02
 1.080E+03, 4.288E+02, 4.750E+02
 1.095E+03, 4.296E+02, 4.750E+02
 1.110E+03, 4.304E+02, 4.750E+02
 1.125E+03, 4.311E+02, 4.750E+02
 1.140E+03, 4.318E+02, 4.750E+02
 1.155E+03, 4.324E+02, 4.750E+02
 1.170E+03, 4.329E+02, 4.750E+02
 1.185E+03, 4.335E+02, 4.750E+02
 1.200E+03, 4.340E+02, 4.750E+02
 1.215E+03, 4.346E+02, 4.750E+02
 1.230E+03, 4.351E+02, 4.750E+02
 1.245E+03, 4.356E+02, 4.750E+02
 1.260E+03, 4.361E+02, 4.750E+02
 1.275E+03, 4.365E+02, 4.750E+02
 1.290E+03, 4.370E+02, 4.750E+02
 1.305E+03, 4.374E+02, 4.746E+02
 1.320E+03, 4.377E+02, 4.694E+02
 1.335E+03, 4.376E+02, 4.627E+02
 1.350E+03, 4.369E+02, 4.560E+02
 1.365E+03, 4.357E+02, 4.493E+02
 1.380E+03, 4.343E+02, 4.426E+02
 1.395E+03, 4.325E+02, 4.359E+02
 1.410E+03, 4.304E+02, 4.292E+02
 1.425E+03, 4.281E+02, 4.225E+02
 1.440E+03, 4.255E+02, 4.158E+02
 1.455E+03, 4.228E+02, 4.090E+02
 1.470E+03, 4.199E+02, 4.023E+02
 1.485E+03, 4.170E+02, 3.956E+02
 1.500E+03, 4.139E+02, 3.889E+02
 1.515E+03, 4.106E+02, 3.822E+02
 1.530E+03, 4.074E+02, 3.755E+02
 1.545E+03, 4.040E+02, 3.688E+02
 1.560E+03, 4.005E+02, 3.621E+02
 1.575E+03, 3.969E+02, 3.554E+02
 1.590E+03, 3.933E+02, 3.487E+02
 1.605E+03, 3.896E+02, 3.420E+02
 1.620E+03, 3.859E+02, 3.353E+02
 1.635E+03, 3.822E+02, 3.286E+02
 1.650E+03, 3.783E+02, 3.219E+02
 1.665E+03, 3.744E+02, 3.152E+02
 1.680E+03, 3.705E+02, 3.085E+02
 1.695E+03, 3.666E+02, 3.018E+02
 1.710E+03, 3.626E+02, 2.966E+02
 1.725E+03, 3.587E+02, 2.962E+02
 1.740E+03, 3.550E+02, 2.962E+02
 1.755E+03, 3.516E+02, 2.962E+02
 1.770E+03, 3.484E+02, 2.962E+02
 1.785E+03, 3.454E+02, 2.962E+02
 1.800E+03, 3.426E+02, 2.962E+02
