s,C,C
Time,"Cable Temp","Shroud Temp"
 0.000E+00, 2.400E+01, 2.400E+01
 1.508E+01, 2.401E+01, 7.359E+01
 3.007E+01, 2.433E+01, 1.713E+02
 4.504E+01, 2.592E+01, 2.688E+02
 6.001E+01, 3.015E+01, 3.663E+02
 7.500E+01, 3.875E+01, 4.584E+02
 9.003E+01, 5.330E+01, 4.800E+02
 1.050E+02, 7.114E+01, 4.800E+02
 1.200E+02, 8.896E+01, 4.800E+02
 1.350E+02, 1.058E+02, 4.800E+02
 1.500E+02, 1.214E+02, 4.800E+02
 1.650E+02, 1.359E+02, 4.800E+02
 1.800E+02, 1.495E+02, 4.800E+02
 1.950E+02, 1.622E+02, 4.800E+02
 2.100E+02, 1.742E+02, 4.800E+02
 2.250E+02, 1.854E+02, 4.800E+02
 2.400E+02, 1.961E+02, 4.800E+02
 2.550E+02, 2.061E+02, 4.800E+02
 2.700E+02, 2.157E+02, 4.800E+02
 2.850E+02, 2.249E+02, 4.800E+02
 3.000E+02, 2.336E+02, 4.800E+02
 3.150E+02, 2.420E+02, 4.800E+02
 3.300E+02, 2.499E+02, 4.800E+02
 3.450E+02, 2.576E+02, 4.800E+02
 3.600E+02, 2.649E+02, 4.800E+02
 3.750E+02, 2.719E+02, 4.800E+02
 3.900E+02, 2.787E+02, 4.800E+02
 4.050E+02, 2.852E+02, 4.800E+02
 4.200E+02, 2.915E+02, 4.800E+02
 4.350E+02, 2.975E+02, 4.800E+02
 4.500E+02, 3.033E+02, 4.800E+02
 4.650E+02, 3.089E+02, 4.800E+02
 4.800E+02, 3.143E+02, 4.800E+02
 4.950E+02, 3.195E+02, 4.800E+02
 5.100E+02, 3.245E+02, 4.800E+02
 5.250E+02, 3.293E+02, 4.800E+02
 5.400E+02, 3.338E+02, 4.800E+02
 5.550E+02, 3.382E+02, 4.800E+02
 5.700E+02, 3.425E+02, 4.800E+02
 5.850E+02, 3.467E+02, 4.800E+02
 6.000E+02, 3.507E+02, 4.800E+02
 6.150E+02, 3.544E+02, 4.800E+02
 6.300E+02, 3.581E+02, 4.800E+02
 6.450E+02, 3.616E+02, 4.800E+02
 6.600E+02, 3.650E+02, 4.800E+02
 6.750E+02, 3.683E+02, 4.800E+02
 6.900E+02, 3.714E+02, 4.800E+02
 7.050E+02, 3.744E+02, 4.800E+02
 7.200E+02, 3.774E+02, 4.800E+02
 7.350E+02, 3.802E+02, 4.800E+02
 7.500E+02, 3.829E+02, 4.800E+02
 7.650E+02, 3.855E+02, 4.800E+02
 7.800E+02, 3.880E+02, 4.800E+02
 7.950E+02, 3.904E+02, 4.800E+02
 8.100E+02, 3.927E+02, 4.800E+02
 8.250E+02, 3.949E+02, 4.797E+02
 8.400E+02, 3.971E+02, 4.748E+02
 8.550E+02, 3.988E+02, 4.686E+02
 8.700E+02, 4.001E+02, 4.624E+02
 8.850E+02, 4.009E+02, 4.563E+02
 9.000E+02, 4.012E+02, 4.501E+02
 9.150E+02, 4.011E+02, 4.439E+02
 9.300E+02, 4.008E+02, 4.377E+02
 9.450E+02, 4.002E+02, 4.315E+02
 9.600E+02, 3.994E+02, 4.253E+02
 9.750E+02, 3.983E+02, 4.191E+02
 9.900E+02, 3.971E+02, 4.129E+02
 1.005E+03, 3.957E+02, 4.068E+02
 1.020E+03, 3.941E+02, 4.006E+02
 1.035E+03, 3.924E+02, 3.944E+02
 1.050E+03, 3.905E+02, 3.882E+02
 1.065E+03, 3.886E+02, 3.820E+02
 1.080E+03, 3.865E+02, 3.758E+02
 1.095E+03, 3.843E+02, 3.696E+02
 1.110E+03, 3.820E+02, 3.634E+02
 1.125E+03, 3.796E+02, 3.572E+02
 1.140E+03, 3.771E+02, 3.510E+02
 1.155E+03, 3.746E+02, 3.449E+02
 1.170E+03, 3.719E+02, 3.387E+02
 1.185E+03, 3.692E+02, 3.325E+02
 1.200E+03, 3.665E+02, 3.263E+02
 1.215E+03, 3.636E+02, 3.201E+02
 1.230E+03, 3.608E+02, 3.139E+02
 1.245E+03, 3.578E+02, 3.078E+02
 1.260E+03, 3.549E+02, 3.032E+02
 1.275E+03, 3.519E+02, 2.990E+02
 1.290E+03, 3.490E+02, 2.949E+02
 1.305E+03, 3.461E+02, 2.907E+02
 1.320E+03, 3.433E+02, 2.865E+02
 1.335E+03, 3.404E+02, 2.823E+02
 1.350E+03, 3.376E+02, 2.781E+02
 1.365E+03, 3.347E+02, 2.740E+02
 1.380E+03, 3.319E+02, 2.698E+02
 1.395E+03, 3.291E+02, 2.656E+02
 1.410E+03, 3.263E+02, 2.614E+02
 1.425E+03, 3.235E+02, 2.572E+02
 1.440E+03, 3.208E+02, 2.531E+02
 1.455E+03, 3.180E+02, 2.489E+02
 1.470E+03, 3.152E+02, 2.447E+02
 1.485E+03, 3.125E+02, 2.405E+02
 1.500E+03, 3.097E+02, 2.363E+02
 1.515E+03, 3.069E+02, 2.322E+02
 1.530E+03, 3.042E+02, 2.280E+02
 1.545E+03, 3.015E+02, 2.238E+02
 1.560E+03, 2.987E+02, 2.196E+02
 1.575E+03, 2.960E+02, 2.154E+02
 1.590E+03, 2.932E+02, 2.113E+02
 1.605E+03, 2.905E+02, 2.073E+02
 1.620E+03, 2.878E+02, 2.064E+02
 1.635E+03, 2.852E+02, 2.064E+02
 1.650E+03, 2.826E+02, 2.064E+02
 1.665E+03, 2.802E+02, 2.064E+02
 1.680E+03, 2.778E+02, 2.064E+02
 1.695E+03, 2.756E+02, 2.064E+02
 1.710E+03, 2.734E+02, 2.064E+02
 1.725E+03, 2.713E+02, 2.064E+02
 1.740E+03, 2.692E+02, 2.064E+02
 1.755E+03, 2.673E+02, 2.064E+02
 1.770E+03, 2.653E+02, 2.064E+02
 1.785E+03, 2.635E+02, 2.064E+02
 1.800E+03, 2.616E+02, 2.064E+02
