s,C,C,C
Time,"Cable Temp","Shroud Temp","Conduit"
 0.000E+00, 3.100E+01, 3.100E+01, 3.100E+01
 1.510E+01, 3.100E+01, 6.669E+01, 3.106E+01
 3.003E+01, 3.100E+01, 1.366E+02, 3.158E+01
 4.502E+01, 3.101E+01, 2.065E+02, 3.306E+01
 6.003E+01, 3.106E+01, 2.766E+02, 3.598E+01
 7.502E+01, 3.120E+01, 3.467E+02, 4.099E+01
 9.000E+01, 3.144E+01, 4.167E+02, 4.883E+01
 1.050E+02, 3.186E+01, 4.711E+02, 6.021E+01
 1.200E+02, 3.248E+01, 4.750E+02, 7.299E+01
 1.350E+02, 3.328E+01, 4.750E+02, 8.554E+01
 1.500E+02, 3.419E+01, 4.750E+02, 9.783E+01
 1.650E+02, 3.536E+01, 4.750E+02, 1.099E+02
 1.800E+02, 3.666E+01, 4.750E+02, 1.216E+02
 1.950E+02, 3.815E+01, 4.750E+02, 1.332E+02
 2.100E+02, 3.988E+01, 4.750E+02, 1.446E+02
 2.250E+02, 4.183E+01, 4.750E+02, 1.557E+02
 2.400E+02, 4.396E+01, 4.750E+02, 1.665E+02
 2.550E+02, 4.635E+01, 4.750E+02, 1.771E+02
 2.700E+02, 4.897E+01, 4.750E+02, 1.873E+02
 2.850E+02, 5.182E+01, 4.750E+02, 1.974E+02
 3.000E+02, 5.489E+01, 4.750E+02, 2.071E+02
 3.150E+02, 5.822E+01, 4.750E+02, 2.166E+02
 3.300E+02, 6.178E+01, 4.750E+02, 2.257E+02
 3.450E+02, 6.555E+01, 4.750E+02, 2.347E+02
 3.600E+02, 6.956E+01, 4.750E+02, 2.433E+02
 3.750E+02, 7.379E+01, 4.750E+02, 2.517E+02
 3.900E+02, 7.821E+01, 4.750E+02, 2.598E+02
 4.050E+02, 8.287E+01, 4.750E+02, 2.677E+02
 4.200E+02, 8.776E+01, 4.750E+02, 2.753E+02
 4.350E+02, 9.284E+01, 4.750E+02, 2.827E+02
 4.500E+02, 9.812E+01, 4.750E+02, 2.897E+02
 4.650E+02, 1.036E+02, 4.750E+02, 2.964E+02
 4.800E+02, 1.092E+02, 4.750E+02, 3.030E+02
 4.950E+02, 1.149E+02, 4.750E+02, 3.094E+02
 5.100E+02, 1.208E+02, 4.750E+02, 3.155E+02
 5.250E+02, 1.269E+02, 4.750E+02, 3.213E+02
 5.400E+02, 1.330E+02, 4.750E+02, 3.267E+02
 5.550E+02, 1.392E+02, 4.750E+02, 3.320E+02
 5.700E+02, 1.456E+02, 4.750E+02, 3.372E+02
 5.850E+02, 1.520E+02, 4.750E+02, 3.421E+02
 6.000E+02, 1.585E+02, 4.750E+02, 3.467E+02
 6.150E+02, 1.651E+02, 4.750E+02, 3.511E+02
 6.300E+02, 1.716E+02, 4.750E+02, 3.554E+02
 6.450E+02, 1.781E+02, 4.750E+02, 3.595E+02
 6.600E+02, 1.847E+02, 4.750E+02, 3.633E+02
 6.750E+02, 1.913E+02, 4.750E+02, 3.670E+02
 6.900E+02, 1.979E+02, 4.750E+02, 3.706E+02
 7.050E+02, 2.044E+02, 4.750E+02, 3.740E+02
 7.200E+02, 2.108E+02, 4.750E+02, 3.771E+02
 7.350E+02, 2.172E+02, 4.750E+02, 3.800E+02
 7.500E+02, 2.234E+02, 4.750E+02, 3.828E+02
 7.650E+02, 2.295E+02, 4.750E+02, 3.855E+02
 7.800E+02, 2.356E+02, 4.750E+02, 3.880E+02
 7.950E+02, 2.416E+02, 4.750E+02, 3.904E+02
 8.100E+02, 2.475E+02, 4.750E+02, 3.927E+02
 8.250E+02, 2.533E+02, 4.750E+02, 3.948E+02
 8.400E+02, 2.590E+02, 4.750E+02, 3.971E+02
 8.550E+02, 2.647E+02, 4.750E+02, 3.993E+02
 8.700E+02, 2.702E+02, 4.750E+02, 4.012E+02
 8.850E+02, 2.756E+02, 4.750E+02, 4.031E+02
 9.000E+02, 2.809E+02, 4.750E+02, 4.048E+02
 9.150E+02, 2.860E+02, 4.750E+02, 4.064E+02
 9.300E+02, 2.910E+02, 4.750E+02, 4.079E+02
 9.450E+02, 2.959E+02, 4.750E+02, 4.094E+02
 9.600E+02, 3.006E+02, 4.750E+02, 4.107E+02
 9.750E+02, 3.051E+02, 4.750E+02, 4.122E+02
 9.900E+02, 3.097E+02, 4.750E+02, 4.137E+02
 1.005E+03, 3.141E+02, 4.750E+02, 4.150E+02
 1.020E+03, 3.185E+02, 4.750E+02, 4.163E+02
 1.035E+03, 3.227E+02, 4.750E+02, 4.176E+02
 1.050E+03, 3.268E+02, 4.750E+02, 4.188E+02
 1.065E+03, 3.307E+02, 4.750E+02, 4.198E+02
 1.080E+03, 3.345E+02, 4.750E+02, 4.209E+02
 1.095E+03, 3.383E+02, 4.750E+02, 4.218E+02
 1.110E+03, 3.419E+02, 4.750E+02, 4.227E+02
 1.125E+03, 3.454E+02, 4.750E+02, 4.236E+02
 1.140E+03, 3.488E+02, 4.750E+02, 4.246E+02
 1.155E+03, 3.522E+02, 4.750E+02, 4.255E+02
 1.170E+03, 3.553E+02, 4.750E+02, 4.262E+02
 1.185E+03, 3.582E+02, 4.750E+02, 4.267E+02
 1.200E+03, 3.612E+02, 4.750E+02, 4.276E+02
 1.215E+03, 3.640E+02, 4.750E+02, 4.282E+02
 1.230E+03, 3.669E+02, 4.750E+02, 4.289E+02
 1.245E+03, 3.696E+02, 4.750E+02, 4.295E+02
 1.260E+03, 3.721E+02, 4.750E+02, 4.300E+02
 1.275E+03, 3.746E+02, 4.750E+02, 4.306E+02
 1.290E+03, 3.770E+02, 4.750E+02, 4.311E+02
 1.305E+03, 3.793E+02, 4.750E+02, 4.317E+02
 1.320E+03, 3.816E+02, 4.750E+02, 4.322E+02
 1.335E+03, 3.838E+02, 4.750E+02, 4.328E+02
 1.350E+03, 3.859E+02, 4.750E+02, 4.334E+02
 1.365E+03, 3.880E+02, 4.750E+02, 4.339E+02
 1.380E+03, 3.900E+02, 4.750E+02, 4.343E+02
 1.395E+03, 3.918E+02, 4.750E+02, 4.345E+02
 1.410E+03, 3.936E+02, 4.750E+02, 4.349E+02
 1.425E+03, 3.953E+02, 4.750E+02, 4.353E+02
 1.440E+03, 3.970E+02, 4.750E+02, 4.355E+02
 1.455E+03, 3.985E+02, 4.750E+02, 4.358E+02
 1.470E+03, 4.001E+02, 4.750E+02, 4.362E+02
 1.485E+03, 4.016E+02, 4.750E+02, 4.365E+02
 1.500E+03, 4.030E+02, 4.750E+02, 4.368E+02
 1.515E+03, 4.044E+02, 4.750E+02, 4.372E+02
 1.530E+03, 4.058E+02, 4.750E+02, 4.375E+02
 1.545E+03, 4.071E+02, 4.750E+02, 4.379E+02
 1.560E+03, 4.084E+02, 4.750E+02, 4.381E+02
 1.575E+03, 4.096E+02, 4.750E+02, 4.384E+02
 1.590E+03, 4.109E+02, 4.750E+02, 4.387E+02
 1.605E+03, 4.120E+02, 4.750E+02, 4.390E+02
 1.620E+03, 4.131E+02, 4.750E+02, 4.393E+02
 1.635E+03, 4.141E+02, 4.750E+02, 4.393E+02
 1.650E+03, 4.151E+02, 4.750E+02, 4.396E+02
 1.665E+03, 4.160E+02, 4.750E+02, 4.399E+02
 1.680E+03, 4.170E+02, 4.750E+02, 4.401E+02
 1.695E+03, 4.179E+02, 4.750E+02, 4.403E+02
 1.710E+03, 4.188E+02, 4.750E+02, 4.405E+02
 1.725E+03, 4.196E+02, 4.750E+02, 4.407E+02
 1.740E+03, 4.204E+02, 4.750E+02, 4.410E+02
 1.755E+03, 4.212E+02, 4.750E+02, 4.410E+02
 1.770E+03, 4.219E+02, 4.750E+02, 4.412E+02
 1.785E+03, 4.226E+02, 4.750E+02, 4.413E+02
 1.800E+03, 4.233E+02, 4.750E+02, 4.414E+02
 1.815E+03, 4.239E+02, 4.750E+02, 4.414E+02
 1.830E+03, 4.244E+02, 4.750E+02, 4.414E+02
 1.845E+03, 4.250E+02, 4.750E+02, 4.416E+02
 1.860E+03, 4.256E+02, 4.750E+02, 4.418E+02
 1.875E+03, 4.262E+02, 4.750E+02, 4.420E+02
 1.890E+03, 4.268E+02, 4.750E+02, 4.422E+02
 1.905E+03, 4.273E+02, 4.750E+02, 4.423E+02
 1.920E+03, 4.278E+02, 4.750E+02, 4.424E+02
 1.935E+03, 4.283E+02, 4.750E+02, 4.425E+02
 1.950E+03, 4.287E+02, 4.750E+02, 4.424E+02
 1.965E+03, 4.291E+02, 4.750E+02, 4.424E+02
 1.980E+03, 4.295E+02, 4.750E+02, 4.425E+02
 1.995E+03, 4.299E+02, 4.750E+02, 4.425E+02
 2.010E+03, 4.302E+02, 4.750E+02, 4.426E+02
 2.025E+03, 4.306E+02, 4.750E+02, 4.426E+02
 2.040E+03, 4.308E+02, 4.750E+02, 4.425E+02
 2.055E+03, 4.311E+02, 4.750E+02, 4.425E+02
 2.070E+03, 4.314E+02, 4.750E+02, 4.426E+02
 2.085E+03, 4.317E+02, 4.750E+02, 4.428E+02
 2.100E+03, 4.321E+02, 4.750E+02, 4.429E+02
 2.115E+03, 4.324E+02, 4.750E+02, 4.430E+02
 2.130E+03, 4.327E+02, 4.750E+02, 4.432E+02
 2.145E+03, 4.331E+02, 4.750E+02, 4.432E+02
 2.160E+03, 4.334E+02, 4.750E+02, 4.433E+02
 2.175E+03, 4.336E+02, 4.750E+02, 4.433E+02
 2.190E+03, 4.338E+02, 4.750E+02, 4.433E+02
 2.205E+03, 4.340E+02, 4.750E+02, 4.433E+02
 2.220E+03, 4.342E+02, 4.750E+02, 4.432E+02
 2.235E+03, 4.344E+02, 4.750E+02, 4.431E+02
 2.250E+03, 4.345E+02, 4.750E+02, 4.432E+02
 2.265E+03, 4.347E+02, 4.750E+02, 4.434E+02
 2.280E+03, 4.350E+02, 4.750E+02, 4.433E+02
 2.295E+03, 4.351E+02, 4.750E+02, 4.433E+02
 2.310E+03, 4.352E+02, 4.750E+02, 4.433E+02
 2.325E+03, 4.353E+02, 4.750E+02, 4.433E+02
 2.340E+03, 4.354E+02, 4.750E+02, 4.432E+02
 2.355E+03, 4.356E+02, 4.750E+02, 4.433E+02
 2.370E+03, 4.357E+02, 4.750E+02, 4.435E+02
 2.385E+03, 4.359E+02, 4.750E+02, 4.435E+02
 2.400E+03, 4.361E+02, 4.750E+02, 4.435E+02
 2.415E+03, 4.362E+02, 4.750E+02, 4.437E+02
 2.430E+03, 4.364E+02, 4.750E+02, 4.437E+02
 2.445E+03, 4.365E+02, 4.750E+02, 4.437E+02
 2.460E+03, 4.365E+02, 4.750E+02, 4.438E+02
 2.475E+03, 4.367E+02, 4.750E+02, 4.438E+02
 2.490E+03, 4.368E+02, 4.750E+02, 4.438E+02
 2.505E+03, 4.368E+02, 4.750E+02, 4.436E+02
 2.520E+03, 4.368E+02, 4.750E+02, 4.435E+02
 2.535E+03, 4.368E+02, 4.750E+02, 4.435E+02
 2.550E+03, 4.369E+02, 4.750E+02, 4.435E+02
 2.565E+03, 4.370E+02, 4.750E+02, 4.435E+02
 2.580E+03, 4.370E+02, 4.750E+02, 4.434E+02
 2.595E+03, 4.371E+02, 4.750E+02, 4.433E+02
 2.610E+03, 4.371E+02, 4.750E+02, 4.433E+02
 2.625E+03, 4.371E+02, 4.750E+02, 4.434E+02
 2.640E+03, 4.372E+02, 4.750E+02, 4.436E+02
 2.655E+03, 4.374E+02, 4.750E+02, 4.438E+02
 2.670E+03, 4.375E+02, 4.750E+02, 4.438E+02
 2.685E+03, 4.376E+02, 4.750E+02, 4.440E+02
 2.700E+03, 4.377E+02, 4.750E+02, 4.441E+02
 2.715E+03, 4.378E+02, 4.750E+02, 4.440E+02
 2.730E+03, 4.378E+02, 4.750E+02, 4.440E+02
 2.745E+03, 4.378E+02, 4.750E+02, 4.440E+02
 2.760E+03, 4.379E+02, 4.750E+02, 4.440E+02
 2.775E+03, 4.379E+02, 4.750E+02, 4.438E+02
 2.790E+03, 4.379E+02, 4.750E+02, 4.436E+02
 2.805E+03, 4.378E+02, 4.750E+02, 4.435E+02
 2.820E+03, 4.379E+02, 4.741E+02, 4.437E+02
 2.835E+03, 4.381E+02, 4.701E+02, 4.437E+02
 2.850E+03, 4.381E+02, 4.659E+02, 4.434E+02
 2.865E+03, 4.381E+02, 4.616E+02, 4.427E+02
 2.880E+03, 4.381E+02, 4.574E+02, 4.419E+02
 2.895E+03, 4.380E+02, 4.532E+02, 4.410E+02
 2.910E+03, 4.379E+02, 4.490E+02, 4.397E+02
 2.925E+03, 4.376E+02, 4.448E+02, 4.380E+02
 2.940E+03, 4.372E+02, 4.406E+02, 4.366E+02
 2.955E+03, 4.369E+02, 4.364E+02, 4.350E+02
 2.970E+03, 4.365E+02, 4.321E+02, 4.331E+02
 2.985E+03, 4.358E+02, 4.279E+02, 4.309E+02
 3.000E+03, 4.349E+02, 4.237E+02, 4.286E+02
 3.015E+03, 4.340E+02, 4.195E+02, 4.264E+02
 3.030E+03, 4.332E+02, 4.153E+02, 4.243E+02
 3.045E+03, 4.325E+02, 4.111E+02, 4.222E+02
 3.060E+03, 4.317E+02, 4.068E+02, 4.200E+02
 3.075E+03, 4.308E+02, 4.026E+02, 4.177E+02
 3.090E+03, 4.298E+02, 3.984E+02, 4.153E+02
 3.105E+03, 4.287E+02, 3.942E+02, 4.129E+02
 3.120E+03, 4.274E+02, 3.900E+02, 4.103E+02
 3.135E+03, 4.262E+02, 3.858E+02, 4.079E+02
 3.150E+03, 4.250E+02, 3.816E+02, 4.054E+02
 3.165E+03, 4.237E+02, 3.773E+02, 4.027E+02
 3.180E+03, 4.223E+02, 3.731E+02, 4.000E+02
 3.195E+03, 4.207E+02, 3.689E+02, 3.972E+02
 3.210E+03, 4.192E+02, 3.647E+02, 3.945E+02
 3.225E+03, 4.176E+02, 3.605E+02, 3.917E+02
 3.240E+03, 4.160E+02, 3.563E+02, 3.890E+02
 3.255E+03, 4.144E+02, 3.520E+02, 3.863E+02
 3.270E+03, 4.127E+02, 3.478E+02, 3.836E+02
 3.285E+03, 4.111E+02, 3.436E+02, 3.808E+02
 3.300E+03, 4.093E+02, 3.394E+02, 3.780E+02
 3.315E+03, 4.075E+02, 3.352E+02, 3.751E+02
 3.330E+03, 4.056E+02, 3.310E+02, 3.722E+02
 3.345E+03, 4.038E+02, 3.268E+02, 3.694E+02
 3.360E+03, 4.019E+02, 3.225E+02, 3.666E+02
 3.375E+03, 3.999E+02, 3.183E+02, 3.634E+02
 3.390E+03, 3.976E+02, 3.141E+02, 3.603E+02
 3.405E+03, 3.955E+02, 3.099E+02, 3.575E+02
 3.420E+03, 3.936E+02, 3.057E+02, 3.546E+02
 3.435E+03, 3.917E+02, 3.015E+02, 3.518E+02
 3.450E+03, 3.897E+02, 2.972E+02, 3.491E+02
 3.465E+03, 3.878E+02, 2.930E+02, 3.463E+02
 3.480E+03, 3.858E+02, 2.888E+02, 3.434E+02
 3.495E+03, 3.837E+02, 2.846E+02, 3.405E+02
 3.510E+03, 3.814E+02, 2.804E+02, 3.375E+02
 3.525E+03, 3.792E+02, 2.762E+02, 3.347E+02
 3.540E+03, 3.771E+02, 2.720E+02, 3.318E+02
 3.555E+03, 3.749E+02, 2.677E+02, 3.287E+02
 3.570E+03, 3.726E+02, 2.635E+02, 3.257E+02
 3.585E+03, 3.703E+02, 2.593E+02, 3.227E+02
 3.600E+03, 3.680E+02, 2.551E+02, 3.198E+02
