s,C,C,C
Time,"Cable Temp","Shroud Temp","Conduit"
 0.000E+00, 3.100E+01, 3.100E+01, 3.100E+01
 1.507E+01, 3.100E+01, 6.662E+01, 3.105E+01
 3.006E+01, 3.100E+01, 1.367E+02, 3.158E+01
 4.503E+01, 3.103E+01, 2.066E+02, 3.305E+01
 6.003E+01, 3.108E+01, 2.767E+02, 3.594E+01
 7.501E+01, 3.121E+01, 3.467E+02, 4.088E+01
 9.002E+01, 3.146E+01, 4.167E+02, 4.869E+01
 1.050E+02, 3.195E+01, 4.712E+02, 6.006E+01
 1.200E+02, 3.251E+01, 4.750E+02, 7.285E+01
 1.350E+02, 3.338E+01, 4.750E+02, 8.549E+01
 1.500E+02, 3.443E+01, 4.750E+02, 9.786E+01
 1.650E+02, 3.560E+01, 4.750E+02, 1.099E+02
 1.800E+02, 3.694E+01, 4.750E+02, 1.218E+02
 1.950E+02, 3.859E+01, 4.750E+02, 1.335E+02
 2.100E+02, 4.043E+01, 4.750E+02, 1.448E+02
 2.250E+02, 4.243E+01, 4.750E+02, 1.559E+02
 2.400E+02, 4.460E+01, 4.750E+02, 1.667E+02
 2.550E+02, 4.698E+01, 4.750E+02, 1.773E+02
 2.700E+02, 4.965E+01, 4.750E+02, 1.876E+02
 2.850E+02, 5.257E+01, 4.750E+02, 1.976E+02
 3.000E+02, 5.578E+01, 4.750E+02, 2.073E+02
 3.150E+02, 5.924E+01, 4.750E+02, 2.168E+02
 3.300E+02, 6.301E+01, 4.750E+02, 2.259E+02
 3.450E+02, 6.699E+01, 4.750E+02, 2.348E+02
 3.600E+02, 7.105E+01, 4.750E+02, 2.435E+02
 3.750E+02, 7.534E+01, 4.750E+02, 2.519E+02
 3.900E+02, 7.993E+01, 4.750E+02, 2.600E+02
 4.050E+02, 8.471E+01, 4.750E+02, 2.678E+02
 4.200E+02, 8.967E+01, 4.750E+02, 2.755E+02
 4.350E+02, 9.481E+01, 4.750E+02, 2.828E+02
 4.500E+02, 1.002E+02, 4.750E+02, 2.899E+02
 4.650E+02, 1.057E+02, 4.750E+02, 2.967E+02
 4.800E+02, 1.115E+02, 4.750E+02, 3.032E+02
 4.950E+02, 1.173E+02, 4.750E+02, 3.095E+02
 5.100E+02, 1.233E+02, 4.750E+02, 3.155E+02
 5.250E+02, 1.294E+02, 4.750E+02, 3.212E+02
 5.400E+02, 1.357E+02, 4.750E+02, 3.268E+02
 5.550E+02, 1.420E+02, 4.750E+02, 3.321E+02
 5.700E+02, 1.485E+02, 4.750E+02, 3.372E+02
 5.850E+02, 1.550E+02, 4.750E+02, 3.421E+02
 6.000E+02, 1.615E+02, 4.750E+02, 3.467E+02
 6.150E+02, 1.680E+02, 4.750E+02, 3.511E+02
 6.300E+02, 1.747E+02, 4.750E+02, 3.553E+02
 6.450E+02, 1.813E+02, 4.750E+02, 3.594E+02
 6.600E+02, 1.879E+02, 4.750E+02, 3.633E+02
 6.750E+02, 1.944E+02, 4.750E+02, 3.670E+02
 6.900E+02, 2.010E+02, 4.750E+02, 3.705E+02
 7.050E+02, 2.074E+02, 4.750E+02, 3.739E+02
 7.200E+02, 2.139E+02, 4.750E+02, 3.770E+02
 7.350E+02, 2.203E+02, 4.750E+02, 3.800E+02
 7.500E+02, 2.266E+02, 4.750E+02, 3.829E+02
 7.650E+02, 2.329E+02, 4.750E+02, 3.857E+02
 7.800E+02, 2.390E+02, 4.750E+02, 3.883E+02
 7.950E+02, 2.450E+02, 4.750E+02, 3.908E+02
 8.100E+02, 2.510E+02, 4.750E+02, 3.932E+02
 8.250E+02, 2.568E+02, 4.750E+02, 3.955E+02
 8.400E+02, 2.624E+02, 4.750E+02, 3.977E+02
 8.550E+02, 2.681E+02, 4.750E+02, 3.998E+02
 8.700E+02, 2.736E+02, 4.750E+02, 4.018E+02
 8.850E+02, 2.790E+02, 4.750E+02, 4.038E+02
 9.000E+02, 2.844E+02, 4.750E+02, 4.056E+02
 9.150E+02, 2.896E+02, 4.750E+02, 4.073E+02
 9.300E+02, 2.946E+02, 4.750E+02, 4.089E+02
 9.450E+02, 2.995E+02, 4.750E+02, 4.104E+02
 9.600E+02, 3.043E+02, 4.750E+02, 4.120E+02
 9.750E+02, 3.090E+02, 4.750E+02, 4.135E+02
 9.900E+02, 3.135E+02, 4.750E+02, 4.148E+02
 1.005E+03, 3.179E+02, 4.750E+02, 4.160E+02
 1.020E+03, 3.221E+02, 4.750E+02, 4.172E+02
 1.035E+03, 3.262E+02, 4.750E+02, 4.185E+02
 1.050E+03, 3.302E+02, 4.750E+02, 4.196E+02
 1.065E+03, 3.342E+02, 4.750E+02, 4.206E+02
 1.080E+03, 3.380E+02, 4.750E+02, 4.217E+02
 1.095E+03, 3.416E+02, 4.750E+02, 4.227E+02
 1.110E+03, 3.452E+02, 4.750E+02, 4.236E+02
 1.125E+03, 3.486E+02, 4.750E+02, 4.245E+02
 1.140E+03, 3.519E+02, 4.750E+02, 4.253E+02
 1.155E+03, 3.551E+02, 4.750E+02, 4.262E+02
 1.170E+03, 3.583E+02, 4.750E+02, 4.270E+02
 1.185E+03, 3.613E+02, 4.750E+02, 4.277E+02
 1.200E+03, 3.642E+02, 4.750E+02, 4.284E+02
 1.215E+03, 3.670E+02, 4.750E+02, 4.292E+02
 1.230E+03, 3.697E+02, 4.750E+02, 4.299E+02
 1.245E+03, 3.724E+02, 4.750E+02, 4.306E+02
 1.260E+03, 3.749E+02, 4.750E+02, 4.311E+02
 1.275E+03, 3.773E+02, 4.750E+02, 4.317E+02
 1.290E+03, 3.797E+02, 4.750E+02, 4.323E+02
 1.305E+03, 3.820E+02, 4.750E+02, 4.329E+02
 1.320E+03, 3.843E+02, 4.750E+02, 4.335E+02
 1.335E+03, 3.865E+02, 4.750E+02, 4.340E+02
 1.350E+03, 3.885E+02, 4.750E+02, 4.345E+02
 1.365E+03, 3.905E+02, 4.750E+02, 4.350E+02
 1.380E+03, 3.925E+02, 4.750E+02, 4.354E+02
 1.395E+03, 3.942E+02, 4.750E+02, 4.357E+02
 1.410E+03, 3.957E+02, 4.750E+02, 4.360E+02
 1.425E+03, 3.974E+02, 4.750E+02, 4.364E+02
 1.440E+03, 3.991E+02, 4.750E+02, 4.369E+02
 1.455E+03, 4.008E+02, 4.750E+02, 4.371E+02
 1.470E+03, 4.021E+02, 4.750E+02, 4.374E+02
 1.485E+03, 4.035E+02, 4.750E+02, 4.376E+02
 1.500E+03, 4.049E+02, 4.750E+02, 4.379E+02
 1.515E+03, 4.062E+02, 4.750E+02, 4.382E+02
 1.530E+03, 4.075E+02, 4.750E+02, 4.385E+02
 1.545E+03, 4.087E+02, 4.750E+02, 4.387E+02
 1.560E+03, 4.098E+02, 4.750E+02, 4.388E+02
 1.575E+03, 4.109E+02, 4.750E+02, 4.391E+02
 1.590E+03, 4.121E+02, 4.750E+02, 4.394E+02
 1.605E+03, 4.133E+02, 4.750E+02, 4.397E+02
 1.620E+03, 4.144E+02, 4.750E+02, 4.400E+02
 1.635E+03, 4.154E+02, 4.750E+02, 4.401E+02
 1.650E+03, 4.164E+02, 4.750E+02, 4.404E+02
 1.665E+03, 4.173E+02, 4.750E+02, 4.407E+02
 1.680E+03, 4.183E+02, 4.750E+02, 4.410E+02
 1.695E+03, 4.191E+02, 4.750E+02, 4.411E+02
 1.710E+03, 4.199E+02, 4.750E+02, 4.413E+02
 1.725E+03, 4.206E+02, 4.750E+02, 4.414E+02
 1.740E+03, 4.212E+02, 4.750E+02, 4.415E+02
 1.755E+03, 4.219E+02, 4.750E+02, 4.415E+02
 1.770E+03, 4.224E+02, 4.750E+02, 4.416E+02
 1.785E+03, 4.230E+02, 4.750E+02, 4.417E+02
 1.800E+03, 4.236E+02, 4.750E+02, 4.419E+02
 1.815E+03, 4.242E+02, 4.750E+02, 4.420E+02
 1.830E+03, 4.248E+02, 4.750E+02, 4.420E+02
 1.845E+03, 4.253E+02, 4.750E+02, 4.421E+02
 1.860E+03, 4.258E+02, 4.750E+02, 4.421E+02
 1.875E+03, 4.263E+02, 4.750E+02, 4.423E+02
 1.890E+03, 4.269E+02, 4.750E+02, 4.425E+02
 1.905E+03, 4.275E+02, 4.750E+02, 4.426E+02
 1.920E+03, 4.280E+02, 4.750E+02, 4.427E+02
 1.935E+03, 4.285E+02, 4.750E+02, 4.429E+02
 1.950E+03, 4.290E+02, 4.750E+02, 4.431E+02
 1.965E+03, 4.296E+02, 4.750E+02, 4.433E+02
 1.980E+03, 4.300E+02, 4.750E+02, 4.433E+02
 1.995E+03, 4.304E+02, 4.750E+02, 4.433E+02
 2.010E+03, 4.307E+02, 4.750E+02, 4.433E+02
 2.025E+03, 4.310E+02, 4.750E+02, 4.435E+02
 2.040E+03, 4.314E+02, 4.750E+02, 4.436E+02
 2.055E+03, 4.318E+02, 4.750E+02, 4.437E+02
 2.070E+03, 4.322E+02, 4.750E+02, 4.439E+02
 2.085E+03, 4.327E+02, 4.750E+02, 4.440E+02
 2.100E+03, 4.329E+02, 4.750E+02, 4.439E+02
 2.115E+03, 4.329E+02, 4.750E+02, 4.437E+02
 2.130E+03, 4.329E+02, 4.750E+02, 4.438E+02
 2.145E+03, 4.331E+02, 4.750E+02, 4.437E+02
 2.160E+03, 4.333E+02, 4.750E+02, 4.438E+02
 2.175E+03, 4.336E+02, 4.750E+02, 4.439E+02
 2.190E+03, 4.338E+02, 4.750E+02, 4.439E+02
 2.205E+03, 4.339E+02, 4.750E+02, 4.438E+02
 2.220E+03, 4.340E+02, 4.750E+02, 4.438E+02
 2.235E+03, 4.341E+02, 4.750E+02, 4.438E+02
 2.250E+03, 4.343E+02, 4.750E+02, 4.438E+02
 2.265E+03, 4.346E+02, 4.750E+02, 4.438E+02
 2.280E+03, 4.347E+02, 4.750E+02, 4.438E+02
 2.295E+03, 4.350E+02, 4.750E+02, 4.440E+02
 2.310E+03, 4.352E+02, 4.750E+02, 4.441E+02
 2.325E+03, 4.354E+02, 4.750E+02, 4.442E+02
 2.340E+03, 4.355E+02, 4.750E+02, 4.441E+02
 2.355E+03, 4.356E+02, 4.750E+02, 4.440E+02
 2.370E+03, 4.356E+02, 4.750E+02, 4.440E+02
 2.385E+03, 4.358E+02, 4.750E+02, 4.441E+02
 2.400E+03, 4.360E+02, 4.750E+02, 4.441E+02
 2.415E+03, 4.362E+02, 4.750E+02, 4.441E+02
 2.430E+03, 4.363E+02, 4.750E+02, 4.442E+02
 2.445E+03, 4.363E+02, 4.750E+02, 4.443E+02
 2.460E+03, 4.365E+02, 4.750E+02, 4.443E+02
 2.475E+03, 4.365E+02, 4.750E+02, 4.443E+02
 2.490E+03, 4.366E+02, 4.750E+02, 4.443E+02
 2.505E+03, 4.367E+02, 4.750E+02, 4.442E+02
 2.520E+03, 4.367E+02, 4.750E+02, 4.442E+02
 2.535E+03, 4.368E+02, 4.750E+02, 4.443E+02
 2.550E+03, 4.370E+02, 4.750E+02, 4.443E+02
 2.565E+03, 4.371E+02, 4.750E+02, 4.444E+02
 2.580E+03, 4.370E+02, 4.750E+02, 4.443E+02
 2.595E+03, 4.370E+02, 4.750E+02, 4.443E+02
 2.610E+03, 4.371E+02, 4.750E+02, 4.443E+02
 2.625E+03, 4.372E+02, 4.750E+02, 4.443E+02
 2.640E+03, 4.374E+02, 4.750E+02, 4.444E+02
 2.655E+03, 4.374E+02, 4.750E+02, 4.444E+02
 2.670E+03, 4.375E+02, 4.750E+02, 4.444E+02
 2.685E+03, 4.375E+02, 4.750E+02, 4.444E+02
 2.700E+03, 4.375E+02, 4.750E+02, 4.444E+02
 2.715E+03, 4.375E+02, 4.750E+02, 4.444E+02
 2.730E+03, 4.376E+02, 4.750E+02, 4.445E+02
 2.745E+03, 4.377E+02, 4.750E+02, 4.445E+02
 2.760E+03, 4.377E+02, 4.750E+02, 4.445E+02
 2.775E+03, 4.378E+02, 4.750E+02, 4.446E+02
 2.790E+03, 4.378E+02, 4.750E+02, 4.445E+02
 2.805E+03, 4.378E+02, 4.750E+02, 4.446E+02
 2.820E+03, 4.380E+02, 4.741E+02, 4.447E+02
 2.835E+03, 4.381E+02, 4.701E+02, 4.445E+02
 2.850E+03, 4.382E+02, 4.659E+02, 4.441E+02
 2.865E+03, 4.382E+02, 4.616E+02, 4.434E+02
 2.880E+03, 4.380E+02, 4.574E+02, 4.425E+02
 2.895E+03, 4.378E+02, 4.532E+02, 4.414E+02
 2.910E+03, 4.375E+02, 4.490E+02, 4.401E+02
 2.925E+03, 4.373E+02, 4.448E+02, 4.387E+02
 2.940E+03, 4.370E+02, 4.406E+02, 4.372E+02
 2.955E+03, 4.366E+02, 4.363E+02, 4.354E+02
 2.970E+03, 4.361E+02, 4.321E+02, 4.336E+02
 2.985E+03, 4.354E+02, 4.279E+02, 4.316E+02
 3.000E+03, 4.347E+02, 4.237E+02, 4.297E+02
 3.015E+03, 4.342E+02, 4.195E+02, 4.277E+02
 3.030E+03, 4.335E+02, 4.153E+02, 4.255E+02
 3.045E+03, 4.327E+02, 4.111E+02, 4.231E+02
 3.060E+03, 4.317E+02, 4.068E+02, 4.208E+02
 3.075E+03, 4.308E+02, 4.026E+02, 4.185E+02
 3.090E+03, 4.297E+02, 3.984E+02, 4.160E+02
 3.105E+03, 4.285E+02, 3.942E+02, 4.136E+02
 3.120E+03, 4.274E+02, 3.900E+02, 4.111E+02
 3.135E+03, 4.262E+02, 3.858E+02, 4.085E+02
 3.150E+03, 4.248E+02, 3.815E+02, 4.058E+02
 3.165E+03, 4.233E+02, 3.773E+02, 4.031E+02
 3.180E+03, 4.217E+02, 3.731E+02, 4.003E+02
 3.195E+03, 4.200E+02, 3.689E+02, 3.975E+02
 3.210E+03, 4.185E+02, 3.647E+02, 3.949E+02
 3.225E+03, 4.168E+02, 3.605E+02, 3.921E+02
 3.240E+03, 4.150E+02, 3.563E+02, 3.891E+02
 3.255E+03, 4.132E+02, 3.520E+02, 3.863E+02
 3.270E+03, 4.116E+02, 3.478E+02, 3.835E+02
 3.285E+03, 4.099E+02, 3.436E+02, 3.807E+02
 3.300E+03, 4.082E+02, 3.394E+02, 3.779E+02
 3.315E+03, 4.061E+02, 3.352E+02, 3.749E+02
 3.330E+03, 4.043E+02, 3.310E+02, 3.720E+02
 3.345E+03, 4.023E+02, 3.268E+02, 3.690E+02
 3.360E+03, 4.002E+02, 3.225E+02, 3.660E+02
 3.375E+03, 3.981E+02, 3.183E+02, 3.630E+02
 3.390E+03, 3.959E+02, 3.141E+02, 3.599E+02
 3.405E+03, 3.937E+02, 3.099E+02, 3.570E+02
 3.420E+03, 3.917E+02, 3.057E+02, 3.541E+02
 3.435E+03, 3.897E+02, 3.015E+02, 3.513E+02
 3.450E+03, 3.879E+02, 2.972E+02, 3.485E+02
 3.465E+03, 3.860E+02, 2.930E+02, 3.457E+02
 3.480E+03, 3.841E+02, 2.888E+02, 3.429E+02
 3.495E+03, 3.819E+02, 2.846E+02, 3.399E+02
 3.510E+03, 3.794E+02, 2.804E+02, 3.369E+02
 3.525E+03, 3.772E+02, 2.762E+02, 3.340E+02
 3.540E+03, 3.750E+02, 2.720E+02, 3.311E+02
 3.555E+03, 3.728E+02, 2.677E+02, 3.282E+02
 3.570E+03, 3.704E+02, 2.635E+02, 3.252E+02
 3.585E+03, 3.679E+02, 2.593E+02, 3.223E+02
 3.600E+03, 3.656E+02, 2.551E+02, 3.195E+02
