s,C,C
Time,"Cable Temp","Shroud Temp"
 0.000E+00, 2.000E+01, 2.000E+01
 1.508E+01, 2.015E+01, 6.684E+01
 3.004E+01, 2.243E+01, 1.591E+02
 4.500E+01, 2.954E+01, 2.512E+02
 6.003E+01, 4.319E+01, 3.219E+02
 7.500E+01, 5.809E+01, 3.234E+02
 9.004E+01, 6.975E+01, 3.196E+02
 1.050E+02, 7.918E+01, 3.158E+02
 1.200E+02, 8.716E+01, 3.120E+02
 1.350E+02, 9.395E+01, 3.082E+02
 1.500E+02, 9.969E+01, 3.052E+02
 1.650E+02, 1.049E+02, 3.050E+02
 1.800E+02, 1.099E+02, 3.050E+02
 1.950E+02, 1.147E+02, 3.050E+02
 2.100E+02, 1.193E+02, 3.050E+02
 2.250E+02, 1.238E+02, 3.050E+02
 2.401E+02, 1.281E+02, 3.050E+02
 2.550E+02, 1.321E+02, 3.050E+02
 2.701E+02, 1.360E+02, 3.050E+02
 2.850E+02, 1.399E+02, 3.050E+02
 3.000E+02, 1.435E+02, 3.050E+02
 3.150E+02, 1.469E+02, 3.050E+02
 3.300E+02, 1.504E+02, 3.050E+02
 3.450E+02, 1.537E+02, 3.050E+02
 3.600E+02, 1.570E+02, 3.050E+02
 3.750E+02, 1.599E+02, 3.050E+02
 3.900E+02, 1.630E+02, 3.050E+02
 4.051E+02, 1.659E+02, 3.050E+02
 4.200E+02, 1.686E+02, 3.050E+02
 4.351E+02, 1.713E+02, 3.050E+02
 4.500E+02, 1.740E+02, 3.050E+02
 4.650E+02, 1.764E+02, 3.050E+02
 4.800E+02, 1.789E+02, 3.050E+02
 4.950E+02, 1.812E+02, 3.050E+02
 5.100E+02, 1.836E+02, 3.050E+02
 5.250E+02, 1.859E+02, 3.050E+02
 5.400E+02, 1.880E+02, 3.050E+02
 5.550E+02, 1.901E+02, 3.050E+02
 5.700E+02, 1.924E+02, 3.050E+02
 5.851E+02, 1.942E+02, 3.050E+02
 6.000E+02, 1.960E+02, 3.050E+02
 6.150E+02, 1.978E+02, 3.050E+02
 6.300E+02, 1.998E+02, 3.050E+02
 6.450E+02, 2.014E+02, 3.050E+02
 6.600E+02, 2.029E+02, 3.050E+02
 6.750E+02, 2.048E+02, 3.050E+02
 6.901E+02, 2.064E+02, 3.050E+02
 7.050E+02, 2.079E+02, 3.050E+02
 7.200E+02, 2.090E+02, 3.050E+02
 7.350E+02, 2.103E+02, 3.050E+02
 7.500E+02, 2.117E+02, 3.050E+02
 7.650E+02, 2.130E+02, 3.050E+02
 7.800E+02, 2.144E+02, 3.050E+02
 7.951E+02, 2.155E+02, 3.050E+02
 8.100E+02, 2.163E+02, 3.050E+02
 8.250E+02, 2.174E+02, 3.050E+02
 8.400E+02, 2.185E+02, 3.050E+02
 8.550E+02, 2.195E+02, 3.050E+02
 8.700E+02, 2.202E+02, 3.050E+02
 8.850E+02, 2.212E+02, 3.050E+02
 9.000E+02, 2.221E+02, 3.050E+02
 9.150E+02, 2.230E+02, 3.050E+02
 9.300E+02, 2.243E+02, 3.050E+02
 9.450E+02, 2.252E+02, 3.050E+02
 9.601E+02, 2.253E+02, 3.050E+02
 9.750E+02, 2.260E+02, 3.050E+02
 9.900E+02, 2.266E+02, 3.050E+02
 1.005E+03, 2.272E+02, 3.050E+02
 1.020E+03, 2.280E+02, 3.050E+02
 1.035E+03, 2.286E+02, 3.050E+02
 1.050E+03, 2.294E+02, 3.050E+02
 1.065E+03, 2.302E+02, 3.050E+02
 1.080E+03, 2.306E+02, 3.050E+02
 1.095E+03, 2.314E+02, 3.050E+02
 1.110E+03, 2.322E+02, 3.050E+02
 1.125E+03, 2.330E+02, 3.050E+02
 1.140E+03, 2.330E+02, 3.050E+02
 1.155E+03, 2.335E+02, 3.050E+02
 1.170E+03, 2.343E+02, 3.050E+02
 1.185E+03, 2.349E+02, 3.050E+02
 1.200E+03, 2.356E+02, 3.050E+02
 1.215E+03, 2.362E+02, 3.050E+02
 1.230E+03, 2.363E+02, 3.050E+02
 1.245E+03, 2.366E+02, 3.050E+02
 1.260E+03, 2.371E+02, 3.050E+02
 1.275E+03, 2.374E+02, 3.050E+02
 1.290E+03, 2.377E+02, 3.050E+02
 1.305E+03, 2.380E+02, 3.050E+02
 1.320E+03, 2.390E+02, 3.050E+02
 1.335E+03, 2.395E+02, 3.050E+02
 1.350E+03, 2.397E+02, 3.050E+02
 1.365E+03, 2.395E+02, 3.050E+02
 1.380E+03, 2.394E+02, 3.050E+02
 1.395E+03, 2.399E+02, 3.050E+02
 1.410E+03, 2.406E+02, 3.050E+02
 1.425E+03, 2.410E+02, 3.050E+02
 1.440E+03, 2.411E+02, 3.050E+02
 1.455E+03, 2.411E+02, 3.050E+02
 1.470E+03, 2.414E+02, 3.050E+02
 1.485E+03, 2.414E+02, 3.050E+02
 1.500E+03, 2.415E+02, 3.050E+02
 1.515E+03, 2.420E+02, 3.050E+02
 1.530E+03, 2.421E+02, 3.050E+02
 1.545E+03, 2.423E+02, 3.050E+02
 1.560E+03, 2.424E+02, 3.050E+02
 1.575E+03, 2.422E+02, 3.050E+02
 1.590E+03, 2.422E+02, 3.050E+02
 1.605E+03, 2.426E+02, 3.050E+02
 1.620E+03, 2.425E+02, 3.050E+02
 1.635E+03, 2.430E+02, 3.050E+02
 1.650E+03, 2.435E+02, 3.050E+02
 1.665E+03, 2.436E+02, 3.050E+02
 1.680E+03, 2.438E+02, 3.050E+02
 1.695E+03, 2.442E+02, 3.050E+02
 1.710E+03, 2.444E+02, 3.050E+02
 1.725E+03, 2.448E+02, 3.050E+02
 1.740E+03, 2.448E+02, 3.050E+02
 1.755E+03, 2.445E+02, 3.050E+02
 1.770E+03, 2.447E+02, 3.050E+02
 1.785E+03, 2.451E+02, 3.050E+02
 1.800E+03, 2.453E+02, 3.050E+02
 1.815E+03, 2.451E+02, 3.050E+02
 1.830E+03, 2.452E+02, 3.050E+02
 1.845E+03, 2.450E+02, 3.050E+02
 1.860E+03, 2.449E+02, 3.050E+02
 1.875E+03, 2.450E+02, 3.050E+02
 1.890E+03, 2.453E+02, 3.050E+02
 1.905E+03, 2.461E+02, 3.050E+02
 1.920E+03, 2.463E+02, 3.050E+02
 1.935E+03, 2.460E+02, 3.050E+02
 1.950E+03, 2.462E+02, 3.050E+02
 1.965E+03, 2.466E+02, 3.050E+02
 1.980E+03, 2.462E+02, 3.050E+02
 1.995E+03, 2.464E+02, 3.050E+02
 2.010E+03, 2.465E+02, 3.050E+02
 2.025E+03, 2.467E+02, 3.050E+02
 2.040E+03, 2.470E+02, 3.050E+02
 2.055E+03, 2.472E+02, 3.050E+02
 2.070E+03, 2.471E+02, 3.050E+02
 2.085E+03, 2.474E+02, 3.050E+02
 2.100E+03, 2.468E+02, 3.040E+02
 2.115E+03, 2.462E+02, 2.996E+02
 2.130E+03, 2.458E+02, 2.949E+02
 2.145E+03, 2.451E+02, 2.903E+02
 2.160E+03, 2.439E+02, 2.856E+02
 2.175E+03, 2.429E+02, 2.810E+02
 2.190E+03, 2.417E+02, 2.763E+02
 2.205E+03, 2.403E+02, 2.717E+02
 2.220E+03, 2.384E+02, 2.670E+02
 2.235E+03, 2.370E+02, 2.624E+02
 2.250E+03, 2.350E+02, 2.577E+02
 2.265E+03, 2.328E+02, 2.531E+02
 2.280E+03, 2.306E+02, 2.485E+02
 2.295E+03, 2.285E+02, 2.438E+02
 2.310E+03, 2.261E+02, 2.392E+02
 2.325E+03, 2.242E+02, 2.348E+02
 2.340E+03, 2.223E+02, 2.338E+02
 2.355E+03, 2.206E+02, 2.338E+02
 2.370E+03, 2.192E+02, 2.338E+02
 2.385E+03, 2.181E+02, 2.338E+02
 2.400E+03, 2.169E+02, 2.338E+02
