s,C,C
Time,"Cable Temp","Shroud Temp"
 0.000E+00, 2.000E+01, 2.000E+01
 1.509E+01, 2.015E+01, 6.692E+01
 3.001E+01, 2.224E+01, 1.591E+02
 4.504E+01, 2.877E+01, 2.512E+02
 6.004E+01, 4.160E+01, 3.219E+02
 7.504E+01, 5.617E+01, 3.234E+02
 9.000E+01, 6.770E+01, 3.196E+02
 1.050E+02, 7.707E+01, 3.158E+02
 1.200E+02, 8.490E+01, 3.120E+02
 1.350E+02, 9.161E+01, 3.082E+02
 1.500E+02, 9.736E+01, 3.052E+02
 1.650E+02, 1.027E+02, 3.050E+02
 1.800E+02, 1.078E+02, 3.050E+02
 1.950E+02, 1.128E+02, 3.050E+02
 2.100E+02, 1.176E+02, 3.050E+02
 2.250E+02, 1.222E+02, 3.050E+02
 2.401E+02, 1.267E+02, 3.050E+02
 2.550E+02, 1.310E+02, 3.050E+02
 2.700E+02, 1.351E+02, 3.050E+02
 2.850E+02, 1.391E+02, 3.050E+02
 3.000E+02, 1.429E+02, 3.050E+02
 3.150E+02, 1.467E+02, 3.050E+02
 3.300E+02, 1.504E+02, 3.050E+02
 3.450E+02, 1.540E+02, 3.050E+02
 3.600E+02, 1.574E+02, 3.050E+02
 3.750E+02, 1.608E+02, 3.050E+02
 3.900E+02, 1.642E+02, 3.050E+02
 4.050E+02, 1.674E+02, 3.050E+02
 4.200E+02, 1.704E+02, 3.050E+02
 4.350E+02, 1.734E+02, 3.050E+02
 4.500E+02, 1.763E+02, 3.050E+02
 4.650E+02, 1.790E+02, 3.050E+02
 4.800E+02, 1.817E+02, 3.050E+02
 4.950E+02, 1.846E+02, 3.050E+02
 5.100E+02, 1.873E+02, 3.050E+02
 5.250E+02, 1.898E+02, 3.050E+02
 5.401E+02, 1.923E+02, 3.050E+02
 5.550E+02, 1.945E+02, 3.050E+02
 5.700E+02, 1.969E+02, 3.050E+02
 5.851E+02, 1.991E+02, 3.050E+02
 6.000E+02, 2.012E+02, 3.050E+02
 6.150E+02, 2.035E+02, 3.050E+02
 6.300E+02, 2.054E+02, 3.050E+02
 6.450E+02, 2.073E+02, 3.050E+02
 6.600E+02, 2.093E+02, 3.050E+02
 6.750E+02, 2.110E+02, 3.050E+02
 6.900E+02, 2.127E+02, 3.050E+02
 7.050E+02, 2.144E+02, 3.050E+02
 7.200E+02, 2.161E+02, 3.050E+02
 7.350E+02, 2.177E+02, 3.050E+02
 7.500E+02, 2.192E+02, 3.050E+02
 7.650E+02, 2.207E+02, 3.050E+02
 7.800E+02, 2.224E+02, 3.050E+02
 7.950E+02, 2.239E+02, 3.050E+02
 8.101E+02, 2.252E+02, 3.050E+02
 8.250E+02, 2.264E+02, 3.050E+02
 8.400E+02, 2.278E+02, 3.050E+02
 8.550E+02, 2.293E+02, 3.050E+02
 8.700E+02, 2.303E+02, 3.050E+02
 8.850E+02, 2.315E+02, 3.050E+02
 9.000E+02, 2.327E+02, 3.050E+02
 9.150E+02, 2.340E+02, 3.050E+02
 9.300E+02, 2.350E+02, 3.050E+02
 9.451E+02, 2.362E+02, 3.050E+02
 9.600E+02, 2.370E+02, 3.050E+02
 9.750E+02, 2.376E+02, 3.050E+02
 9.900E+02, 2.384E+02, 3.050E+02
 1.005E+03, 2.395E+02, 3.050E+02
 1.020E+03, 2.402E+02, 3.050E+02
 1.035E+03, 2.411E+02, 3.050E+02
 1.050E+03, 2.418E+02, 3.050E+02
 1.065E+03, 2.425E+02, 3.050E+02
 1.080E+03, 2.430E+02, 3.050E+02
 1.095E+03, 2.438E+02, 3.050E+02
 1.110E+03, 2.447E+02, 3.050E+02
 1.125E+03, 2.456E+02, 3.050E+02
 1.140E+03, 2.461E+02, 3.050E+02
 1.155E+03, 2.469E+02, 3.050E+02
 1.170E+03, 2.476E+02, 3.050E+02
 1.185E+03, 2.483E+02, 3.050E+02
 1.200E+03, 2.491E+02, 3.050E+02
 1.215E+03, 2.495E+02, 3.050E+02
 1.230E+03, 2.501E+02, 3.050E+02
 1.245E+03, 2.504E+02, 3.050E+02
 1.260E+03, 2.508E+02, 3.050E+02
 1.275E+03, 2.514E+02, 3.050E+02
 1.290E+03, 2.519E+02, 3.050E+02
 1.305E+03, 2.520E+02, 3.050E+02
 1.320E+03, 2.525E+02, 3.050E+02
 1.335E+03, 2.528E+02, 3.050E+02
 1.350E+03, 2.535E+02, 3.050E+02
 1.365E+03, 2.540E+02, 3.050E+02
 1.380E+03, 2.547E+02, 3.050E+02
 1.395E+03, 2.551E+02, 3.050E+02
 1.410E+03, 2.551E+02, 3.050E+02
 1.425E+03, 2.553E+02, 3.050E+02
 1.440E+03, 2.557E+02, 3.050E+02
 1.455E+03, 2.563E+02, 3.050E+02
 1.470E+03, 2.565E+02, 3.050E+02
 1.485E+03, 2.564E+02, 3.050E+02
 1.500E+03, 2.564E+02, 3.050E+02
 1.515E+03, 2.566E+02, 3.050E+02
 1.530E+03, 2.571E+02, 3.050E+02
 1.545E+03, 2.572E+02, 3.050E+02
 1.560E+03, 2.577E+02, 3.050E+02
 1.575E+03, 2.580E+02, 3.050E+02
 1.590E+03, 2.583E+02, 3.050E+02
 1.605E+03, 2.584E+02, 3.050E+02
 1.620E+03, 2.581E+02, 3.050E+02
 1.635E+03, 2.582E+02, 3.050E+02
 1.650E+03, 2.582E+02, 3.050E+02
 1.665E+03, 2.588E+02, 3.050E+02
 1.680E+03, 2.592E+02, 3.050E+02
 1.695E+03, 2.592E+02, 3.050E+02
 1.710E+03, 2.596E+02, 3.050E+02
 1.725E+03, 2.596E+02, 3.050E+02
 1.740E+03, 2.599E+02, 3.050E+02
 1.755E+03, 2.595E+02, 3.050E+02
 1.770E+03, 2.596E+02, 3.050E+02
 1.785E+03, 2.598E+02, 3.050E+02
 1.800E+03, 2.602E+02, 3.050E+02
 1.815E+03, 2.604E+02, 3.050E+02
 1.830E+03, 2.605E+02, 3.050E+02
 1.845E+03, 2.606E+02, 3.050E+02
 1.860E+03, 2.607E+02, 3.050E+02
 1.875E+03, 2.606E+02, 3.050E+02
 1.890E+03, 2.607E+02, 3.050E+02
 1.905E+03, 2.612E+02, 3.050E+02
 1.920E+03, 2.615E+02, 3.050E+02
 1.935E+03, 2.616E+02, 3.050E+02
 1.950E+03, 2.616E+02, 3.050E+02
 1.965E+03, 2.619E+02, 3.050E+02
 1.980E+03, 2.619E+02, 3.050E+02
 1.995E+03, 2.621E+02, 3.050E+02
 2.010E+03, 2.622E+02, 3.050E+02
 2.025E+03, 2.624E+02, 3.050E+02
 2.040E+03, 2.626E+02, 3.050E+02
 2.055E+03, 2.625E+02, 3.050E+02
 2.070E+03, 2.623E+02, 3.050E+02
 2.085E+03, 2.627E+02, 3.050E+02
 2.100E+03, 2.625E+02, 3.040E+02
 2.115E+03, 2.622E+02, 2.996E+02
 2.130E+03, 2.614E+02, 2.949E+02
 2.145E+03, 2.605E+02, 2.903E+02
 2.160E+03, 2.596E+02, 2.856E+02
 2.175E+03, 2.583E+02, 2.810E+02
 2.190E+03, 2.570E+02, 2.763E+02
 2.205E+03, 2.555E+02, 2.717E+02
 2.220E+03, 2.541E+02, 2.670E+02
 2.235E+03, 2.524E+02, 2.624E+02
 2.250E+03, 2.507E+02, 2.577E+02
 2.265E+03, 2.488E+02, 2.531E+02
 2.280E+03, 2.471E+02, 2.484E+02
 2.295E+03, 2.454E+02, 2.438E+02
 2.310E+03, 2.434E+02, 2.392E+02
 2.325E+03, 2.413E+02, 2.348E+02
 2.340E+03, 2.393E+02, 2.338E+02
 2.355E+03, 2.376E+02, 2.338E+02
 2.370E+03, 2.360E+02, 2.338E+02
 2.385E+03, 2.345E+02, 2.338E+02
 2.400E+03, 2.332E+02, 2.338E+02
