s,C,C
Time,"Cable Temp","Shroud Temp"
 0.000E+00, 2.400E+01, 2.400E+01
 1.501E+01, 2.401E+01, 7.340E+01
 3.006E+01, 2.433E+01, 1.711E+02
 4.506E+01, 2.593E+01, 2.689E+02
 6.001E+01, 3.016E+01, 3.664E+02
 7.502E+01, 3.876E+01, 4.584E+02
 9.002E+01, 5.331E+01, 4.800E+02
 1.050E+02, 7.117E+01, 4.800E+02
 1.200E+02, 8.902E+01, 4.800E+02
 1.350E+02, 1.058E+02, 4.800E+02
 1.500E+02, 1.214E+02, 4.800E+02
 1.650E+02, 1.360E+02, 4.800E+02
 1.800E+02, 1.495E+02, 4.800E+02
 1.950E+02, 1.622E+02, 4.800E+02
 2.100E+02, 1.742E+02, 4.800E+02
 2.250E+02, 1.854E+02, 4.800E+02
 2.400E+02, 1.961E+02, 4.800E+02
 2.550E+02, 2.062E+02, 4.800E+02
 2.700E+02, 2.158E+02, 4.800E+02
 2.850E+02, 2.249E+02, 4.800E+02
 3.000E+02, 2.336E+02, 4.800E+02
 3.150E+02, 2.420E+02, 4.800E+02
 3.300E+02, 2.499E+02, 4.800E+02
 3.450E+02, 2.576E+02, 4.800E+02
 3.600E+02, 2.649E+02, 4.800E+02
 3.750E+02, 2.719E+02, 4.800E+02
 3.900E+02, 2.787E+02, 4.800E+02
 4.050E+02, 2.852E+02, 4.800E+02
 4.200E+02, 2.914E+02, 4.800E+02
 4.350E+02, 2.974E+02, 4.800E+02
 4.500E+02, 3.032E+02, 4.800E+02
 4.650E+02, 3.088E+02, 4.800E+02
 4.800E+02, 3.142E+02, 4.800E+02
 4.950E+02, 3.193E+02, 4.800E+02
 5.100E+02, 3.243E+02, 4.800E+02
 5.250E+02, 3.290E+02, 4.800E+02
 5.400E+02, 3.336E+02, 4.800E+02
 5.550E+02, 3.381E+02, 4.800E+02
 5.700E+02, 3.423E+02, 4.800E+02
 5.850E+02, 3.465E+02, 4.800E+02
 6.000E+02, 3.504E+02, 4.800E+02
 6.150E+02, 3.542E+02, 4.800E+02
 6.300E+02, 3.578E+02, 4.800E+02
 6.450E+02, 3.613E+02, 4.800E+02
 6.600E+02, 3.647E+02, 4.800E+02
 6.750E+02, 3.679E+02, 4.800E+02
 6.900E+02, 3.711E+02, 4.784E+02
 7.050E+02, 3.741E+02, 4.716E+02
 7.200E+02, 3.765E+02, 4.645E+02
 7.350E+02, 3.782E+02, 4.573E+02
 7.500E+02, 3.794E+02, 4.502E+02
 7.650E+02, 3.802E+02, 4.430E+02
 7.800E+02, 3.805E+02, 4.359E+02
 7.950E+02, 3.805E+02, 4.287E+02
 8.100E+02, 3.802E+02, 4.216E+02
 8.250E+02, 3.796E+02, 4.144E+02
 8.400E+02, 3.787E+02, 4.073E+02
 8.550E+02, 3.776E+02, 4.001E+02
 8.700E+02, 3.762E+02, 3.930E+02
 8.850E+02, 3.748E+02, 3.858E+02
 9.000E+02, 3.731E+02, 3.787E+02
 9.150E+02, 3.713E+02, 3.732E+02
 9.300E+02, 3.694E+02, 3.694E+02
 9.450E+02, 3.675E+02, 3.656E+02
 9.600E+02, 3.656E+02, 3.617E+02
 9.750E+02, 3.638E+02, 3.579E+02
 9.900E+02, 3.620E+02, 3.541E+02
 1.005E+03, 3.601E+02, 3.503E+02
 1.020E+03, 3.583E+02, 3.464E+02
 1.035E+03, 3.564E+02, 3.426E+02
 1.050E+03, 3.545E+02, 3.388E+02
 1.065E+03, 3.526E+02, 3.350E+02
 1.080E+03, 3.507E+02, 3.311E+02
 1.095E+03, 3.487E+02, 3.273E+02
 1.110E+03, 3.467E+02, 3.235E+02
 1.125E+03, 3.447E+02, 3.197E+02
 1.140E+03, 3.426E+02, 3.159E+02
 1.155E+03, 3.406E+02, 3.120E+02
 1.170E+03, 3.385E+02, 3.082E+02
 1.185E+03, 3.364E+02, 3.044E+02
 1.200E+03, 3.342E+02, 3.006E+02
 1.215E+03, 3.320E+02, 2.967E+02
 1.230E+03, 3.299E+02, 2.929E+02
 1.245E+03, 3.276E+02, 2.891E+02
 1.260E+03, 3.254E+02, 2.856E+02
 1.275E+03, 3.231E+02, 2.822E+02
 1.290E+03, 3.209E+02, 2.788E+02
 1.305E+03, 3.187E+02, 2.754E+02
 1.320E+03, 3.164E+02, 2.719E+02
 1.335E+03, 3.142E+02, 2.685E+02
 1.350E+03, 3.120E+02, 2.651E+02
 1.365E+03, 3.097E+02, 2.617E+02
 1.380E+03, 3.075E+02, 2.583E+02
 1.395E+03, 3.052E+02, 2.548E+02
 1.410E+03, 3.029E+02, 2.514E+02
 1.425E+03, 3.007E+02, 2.480E+02
 1.440E+03, 2.984E+02, 2.446E+02
 1.455E+03, 2.961E+02, 2.412E+02
 1.470E+03, 2.939E+02, 2.377E+02
 1.485E+03, 2.916E+02, 2.343E+02
 1.500E+03, 2.893E+02, 2.309E+02
 1.515E+03, 2.871E+02, 2.275E+02
 1.530E+03, 2.848E+02, 2.241E+02
 1.545E+03, 2.825E+02, 2.206E+02
 1.560E+03, 2.802E+02, 2.172E+02
 1.575E+03, 2.780E+02, 2.138E+02
 1.590E+03, 2.757E+02, 2.104E+02
 1.605E+03, 2.734E+02, 2.071E+02
 1.620E+03, 2.712E+02, 2.064E+02
 1.635E+03, 2.690E+02, 2.064E+02
 1.650E+03, 2.669E+02, 2.064E+02
 1.665E+03, 2.648E+02, 2.064E+02
 1.680E+03, 2.629E+02, 2.064E+02
 1.695E+03, 2.610E+02, 2.064E+02
 1.710E+03, 2.592E+02, 2.064E+02
 1.725E+03, 2.574E+02, 2.064E+02
 1.740E+03, 2.557E+02, 2.064E+02
 1.755E+03, 2.540E+02, 2.064E+02
 1.770E+03, 2.524E+02, 2.064E+02
 1.785E+03, 2.509E+02, 2.064E+02
 1.800E+03, 2.493E+02, 2.064E+02
