s,C,C,C
Time,"Cable Temp","Shroud Temp","Conduit"
 0.000E+00, 3.100E+01, 3.100E+01, 3.100E+01
 1.504E+01, 3.100E+01, 6.885E+01, 3.106E+01
 3.001E+01, 3.100E+01, 1.434E+02, 3.163E+01
 4.504E+01, 3.105E+01, 2.181E+02, 3.329E+01
 6.002E+01, 3.115E+01, 2.886E+02, 3.653E+01
 7.504E+01, 3.130E+01, 3.050E+02, 4.110E+01
 9.000E+01, 3.158E+01, 3.050E+02, 4.572E+01
 1.050E+02, 3.196E+01, 3.050E+02, 5.029E+01
 1.200E+02, 3.241E+01, 3.050E+02, 5.481E+01
 1.350E+02, 3.290E+01, 3.050E+02, 5.922E+01
 1.500E+02, 3.338E+01, 3.050E+02, 6.359E+01
 1.650E+02, 3.391E+01, 3.050E+02, 6.791E+01
 1.800E+02, 3.449E+01, 3.050E+02, 7.213E+01
 1.950E+02, 3.507E+01, 3.050E+02, 7.629E+01
 2.100E+02, 3.570E+01, 3.050E+02, 8.039E+01
 2.250E+02, 3.644E+01, 3.050E+02, 8.441E+01
 2.400E+02, 3.730E+01, 3.050E+02, 8.837E+01
 2.550E+02, 3.811E+01, 3.050E+02, 9.230E+01
 2.700E+02, 3.898E+01, 3.050E+02, 9.613E+01
 2.850E+02, 3.991E+01, 3.050E+02, 9.991E+01
 3.000E+02, 4.084E+01, 3.050E+02, 1.036E+02
 3.150E+02, 4.185E+01, 3.050E+02, 1.073E+02
 3.300E+02, 4.294E+01, 3.050E+02, 1.109E+02
 3.450E+02, 4.412E+01, 3.050E+02, 1.144E+02
 3.601E+02, 4.520E+01, 3.050E+02, 1.179E+02
 3.750E+02, 4.630E+01, 3.050E+02, 1.213E+02
 3.900E+02, 4.740E+01, 3.050E+02, 1.246E+02
 4.050E+02, 4.859E+01, 3.050E+02, 1.279E+02
 4.200E+02, 4.985E+01, 3.050E+02, 1.311E+02
 4.350E+02, 5.110E+01, 3.050E+02, 1.342E+02
 4.500E+02, 5.234E+01, 3.050E+02, 1.373E+02
 4.650E+02, 5.369E+01, 3.050E+02, 1.403E+02
 4.800E+02, 5.506E+01, 3.050E+02, 1.433E+02
 4.950E+02, 5.644E+01, 3.050E+02, 1.462E+02
 5.100E+02, 5.784E+01, 3.050E+02, 1.491E+02
 5.250E+02, 5.929E+01, 3.050E+02, 1.520E+02
 5.400E+02, 6.076E+01, 3.050E+02, 1.548E+02
 5.550E+02, 6.228E+01, 3.050E+02, 1.575E+02
 5.700E+02, 6.385E+01, 3.050E+02, 1.602E+02
 5.851E+02, 6.547E+01, 3.050E+02, 1.628E+02
 6.000E+02, 6.710E+01, 3.050E+02, 1.653E+02
 6.150E+02, 6.874E+01, 3.050E+02, 1.678E+02
 6.300E+02, 7.040E+01, 3.050E+02, 1.703E+02
 6.451E+02, 7.211E+01, 3.050E+02, 1.727E+02
 6.600E+02, 7.385E+01, 3.050E+02, 1.751E+02
 6.750E+02, 7.561E+01, 3.050E+02, 1.775E+02
 6.900E+02, 7.739E+01, 3.050E+02, 1.798E+02
 7.050E+02, 7.919E+01, 3.050E+02, 1.820E+02
 7.200E+02, 8.100E+01, 3.050E+02, 1.842E+02
 7.350E+02, 8.286E+01, 3.050E+02, 1.864E+02
 7.500E+02, 8.474E+01, 3.050E+02, 1.885E+02
 7.650E+02, 8.665E+01, 3.050E+02, 1.905E+02
 7.800E+02, 8.854E+01, 3.050E+02, 1.925E+02
 7.950E+02, 9.045E+01, 3.050E+02, 1.945E+02
 8.100E+02, 9.236E+01, 3.050E+02, 1.964E+02
 8.250E+02, 9.428E+01, 3.050E+02, 1.983E+02
 8.400E+02, 9.621E+01, 3.050E+02, 2.001E+02
 8.550E+02, 9.816E+01, 3.050E+02, 2.019E+02
 8.700E+02, 1.001E+02, 3.050E+02, 2.036E+02
 8.850E+02, 1.021E+02, 3.050E+02, 2.053E+02
 9.000E+02, 1.041E+02, 3.050E+02, 2.069E+02
 9.150E+02, 1.060E+02, 3.050E+02, 2.085E+02
 9.300E+02, 1.081E+02, 3.050E+02, 2.101E+02
 9.450E+02, 1.101E+02, 3.050E+02, 2.117E+02
 9.600E+02, 1.121E+02, 3.050E+02, 2.132E+02
 9.751E+02, 1.141E+02, 3.050E+02, 2.147E+02
 9.900E+02, 1.162E+02, 3.050E+02, 2.161E+02
 1.005E+03, 1.182E+02, 3.050E+02, 2.176E+02
 1.020E+03, 1.202E+02, 3.050E+02, 2.189E+02
 1.035E+03, 1.222E+02, 3.050E+02, 2.202E+02
 1.050E+03, 1.242E+02, 3.050E+02, 2.215E+02
 1.065E+03, 1.261E+02, 3.050E+02, 2.226E+02
 1.080E+03, 1.280E+02, 3.050E+02, 2.238E+02
 1.095E+03, 1.300E+02, 3.050E+02, 2.250E+02
 1.110E+03, 1.319E+02, 3.050E+02, 2.261E+02
 1.125E+03, 1.339E+02, 3.050E+02, 2.272E+02
 1.140E+03, 1.358E+02, 3.050E+02, 2.283E+02
 1.155E+03, 1.378E+02, 3.050E+02, 2.294E+02
 1.170E+03, 1.397E+02, 3.050E+02, 2.305E+02
 1.185E+03, 1.416E+02, 3.050E+02, 2.315E+02
 1.200E+03, 1.435E+02, 3.050E+02, 2.325E+02
 1.215E+03, 1.453E+02, 3.050E+02, 2.335E+02
 1.230E+03, 1.472E+02, 3.050E+02, 2.345E+02
 1.245E+03, 1.491E+02, 3.050E+02, 2.355E+02
 1.260E+03, 1.510E+02, 3.050E+02, 2.364E+02
 1.275E+03, 1.529E+02, 3.050E+02, 2.372E+02
 1.290E+03, 1.547E+02, 3.050E+02, 2.380E+02
 1.305E+03, 1.564E+02, 3.050E+02, 2.388E+02
 1.320E+03, 1.582E+02, 3.050E+02, 2.396E+02
 1.335E+03, 1.600E+02, 3.050E+02, 2.403E+02
 1.350E+03, 1.617E+02, 3.050E+02, 2.411E+02
 1.365E+03, 1.635E+02, 3.050E+02, 2.419E+02
 1.380E+03, 1.652E+02, 3.050E+02, 2.426E+02
 1.395E+03, 1.669E+02, 3.050E+02, 2.433E+02
 1.410E+03, 1.687E+02, 3.050E+02, 2.441E+02
 1.425E+03, 1.704E+02, 3.050E+02, 2.449E+02
 1.440E+03, 1.721E+02, 3.050E+02, 2.455E+02
 1.455E+03, 1.737E+02, 3.050E+02, 2.462E+02
 1.470E+03, 1.754E+02, 3.050E+02, 2.469E+02
 1.485E+03, 1.770E+02, 3.050E+02, 2.477E+02
 1.500E+03, 1.787E+02, 3.050E+02, 2.484E+02
 1.515E+03, 1.804E+02, 3.050E+02, 2.490E+02
 1.530E+03, 1.820E+02, 3.050E+02, 2.496E+02
 1.545E+03, 1.835E+02, 3.050E+02, 2.502E+02
 1.560E+03, 1.850E+02, 3.050E+02, 2.508E+02
 1.575E+03, 1.865E+02, 3.050E+02, 2.514E+02
 1.590E+03, 1.880E+02, 3.050E+02, 2.519E+02
 1.605E+03, 1.895E+02, 3.050E+02, 2.523E+02
 1.620E+03, 1.909E+02, 3.050E+02, 2.527E+02
 1.635E+03, 1.922E+02, 3.050E+02, 2.530E+02
 1.650E+03, 1.935E+02, 3.050E+02, 2.535E+02
 1.665E+03, 1.949E+02, 3.050E+02, 2.540E+02
 1.680E+03, 1.963E+02, 3.050E+02, 2.545E+02
 1.695E+03, 1.976E+02, 3.050E+02, 2.548E+02
 1.710E+03, 1.988E+02, 3.050E+02, 2.552E+02
 1.725E+03, 2.000E+02, 3.050E+02, 2.555E+02
 1.740E+03, 2.012E+02, 3.050E+02, 2.560E+02
 1.755E+03, 2.026E+02, 3.050E+02, 2.565E+02
 1.770E+03, 2.038E+02, 3.050E+02, 2.568E+02
 1.785E+03, 2.050E+02, 3.050E+02, 2.572E+02
 1.800E+03, 2.063E+02, 3.050E+02, 2.577E+02
 1.815E+03, 2.075E+02, 3.050E+02, 2.581E+02
 1.830E+03, 2.088E+02, 3.050E+02, 2.585E+02
 1.845E+03, 2.099E+02, 3.050E+02, 2.588E+02
 1.860E+03, 2.110E+02, 3.050E+02, 2.591E+02
 1.875E+03, 2.121E+02, 3.050E+02, 2.594E+02
 1.890E+03, 2.131E+02, 3.049E+02, 2.597E+02
 1.905E+03, 2.142E+02, 3.021E+02, 2.600E+02
 1.920E+03, 2.153E+02, 2.980E+02, 2.602E+02
 1.935E+03, 2.163E+02, 2.939E+02, 2.602E+02
 1.950E+03, 2.173E+02, 2.898E+02, 2.601E+02
 1.965E+03, 2.183E+02, 2.857E+02, 2.599E+02
 1.980E+03, 2.193E+02, 2.816E+02, 2.596E+02
 1.995E+03, 2.202E+02, 2.774E+02, 2.592E+02
 2.010E+03, 2.212E+02, 2.733E+02, 2.588E+02
 2.025E+03, 2.220E+02, 2.692E+02, 2.582E+02
 2.040E+03, 2.228E+02, 2.651E+02, 2.575E+02
 2.055E+03, 2.235E+02, 2.610E+02, 2.566E+02
 2.070E+03, 2.240E+02, 2.569E+02, 2.556E+02
 2.085E+03, 2.246E+02, 2.528E+02, 2.547E+02
 2.100E+03, 2.252E+02, 2.487E+02, 2.537E+02
 2.115E+03, 2.257E+02, 2.446E+02, 2.526E+02
 2.130E+03, 2.263E+02, 2.405E+02, 2.516E+02
 2.145E+03, 2.268E+02, 2.363E+02, 2.505E+02
 2.160E+03, 2.272E+02, 2.322E+02, 2.491E+02
 2.175E+03, 2.274E+02, 2.281E+02, 2.477E+02
 2.190E+03, 2.275E+02, 2.240E+02, 2.461E+02
 2.205E+03, 2.276E+02, 2.199E+02, 2.446E+02
 2.220E+03, 2.278E+02, 2.158E+02, 2.432E+02
 2.235E+03, 2.280E+02, 2.117E+02, 2.418E+02
 2.250E+03, 2.281E+02, 2.076E+02, 2.403E+02
 2.265E+03, 2.281E+02, 2.035E+02, 2.386E+02
 2.280E+03, 2.281E+02, 1.994E+02, 2.371E+02
 2.295E+03, 2.281E+02, 1.952E+02, 2.355E+02
 2.310E+03, 2.279E+02, 1.911E+02, 2.337E+02
 2.325E+03, 2.275E+02, 1.870E+02, 2.319E+02
 2.340E+03, 2.271E+02, 1.829E+02, 2.300E+02
 2.355E+03, 2.268E+02, 1.788E+02, 2.283E+02
 2.370E+03, 2.266E+02, 1.747E+02, 2.267E+02
 2.385E+03, 2.266E+02, 1.706E+02, 2.251E+02
 2.400E+03, 2.265E+02, 1.680E+02, 2.235E+02
 2.415E+03, 2.263E+02, 1.680E+02, 2.218E+02
 2.430E+03, 2.258E+02, 1.680E+02, 2.200E+02
 2.445E+03, 2.251E+02, 1.680E+02, 2.183E+02
 2.460E+03, 2.244E+02, 1.680E+02, 2.166E+02
 2.475E+03, 2.238E+02, 1.680E+02, 2.150E+02
 2.490E+03, 2.233E+02, 1.680E+02, 2.135E+02
 2.505E+03, 2.229E+02, 1.680E+02, 2.121E+02
 2.520E+03, 2.225E+02, 1.680E+02, 2.107E+02
 2.535E+03, 2.221E+02, 1.680E+02, 2.094E+02
 2.550E+03, 2.217E+02, 1.680E+02, 2.082E+02
 2.565E+03, 2.213E+02, 1.680E+02, 2.069E+02
 2.580E+03, 2.207E+02, 1.680E+02, 2.057E+02
 2.595E+03, 2.202E+02, 1.680E+02, 2.046E+02
 2.610E+03, 2.197E+02, 1.680E+02, 2.033E+02
 2.625E+03, 2.190E+02, 1.680E+02, 2.022E+02
 2.640E+03, 2.185E+02, 1.680E+02, 2.010E+02
 2.655E+03, 2.178E+02, 1.680E+02, 1.999E+02
 2.670E+03, 2.172E+02, 1.680E+02, 1.988E+02
 2.685E+03, 2.164E+02, 1.680E+02, 1.977E+02
 2.700E+03, 2.157E+02, 1.680E+02, 1.967E+02
 2.715E+03, 2.150E+02, 1.680E+02, 1.957E+02
 2.730E+03, 2.143E+02, 1.680E+02, 1.947E+02
 2.745E+03, 2.137E+02, 1.680E+02, 1.938E+02
 2.760E+03, 2.131E+02, 1.680E+02, 1.928E+02
 2.775E+03, 2.123E+02, 1.680E+02, 1.918E+02
 2.790E+03, 2.116E+02, 1.680E+02, 1.909E+02
 2.805E+03, 2.108E+02, 1.680E+02, 1.899E+02
 2.820E+03, 2.100E+02, 1.680E+02, 1.891E+02
 2.835E+03, 2.094E+02, 1.680E+02, 1.883E+02
 2.850E+03, 2.088E+02, 1.680E+02, 1.875E+02
 2.865E+03, 2.081E+02, 1.680E+02, 1.866E+02
 2.880E+03, 2.072E+02, 1.680E+02, 1.857E+02
 2.895E+03, 2.063E+02, 1.680E+02, 1.848E+02
 2.910E+03, 2.055E+02, 1.680E+02, 1.841E+02
 2.925E+03, 2.049E+02, 1.680E+02, 1.834E+02
 2.940E+03, 2.044E+02, 1.680E+02, 1.827E+02
 2.955E+03, 2.039E+02, 1.680E+02, 1.820E+02
 2.970E+03, 2.032E+02, 1.680E+02, 1.813E+02
 2.985E+03, 2.024E+02, 1.680E+02, 1.807E+02
 3.000E+03, 2.019E+02, 1.680E+02, 1.801E+02
 3.015E+03, 2.014E+02, 1.680E+02, 1.795E+02
 3.030E+03, 2.009E+02, 1.680E+02, 1.789E+02
 3.045E+03, 2.004E+02, 1.680E+02, 1.784E+02
 3.060E+03, 1.997E+02, 1.680E+02, 1.777E+02
 3.075E+03, 1.990E+02, 1.680E+02, 1.771E+02
 3.090E+03, 1.983E+02, 1.680E+02, 1.765E+02
 3.105E+03, 1.978E+02, 1.680E+02, 1.761E+02
 3.120E+03, 1.972E+02, 1.680E+02, 1.755E+02
 3.135E+03, 1.964E+02, 1.680E+02, 1.748E+02
 3.150E+03, 1.957E+02, 1.680E+02, 1.743E+02
 3.165E+03, 1.952E+02, 1.680E+02, 1.739E+02
 3.180E+03, 1.948E+02, 1.680E+02, 1.734E+02
 3.195E+03, 1.943E+02, 1.680E+02, 1.730E+02
 3.210E+03, 1.938E+02, 1.680E+02, 1.725E+02
 3.225E+03, 1.931E+02, 1.680E+02, 1.719E+02
 3.240E+03, 1.924E+02, 1.680E+02, 1.715E+02
 3.255E+03, 1.918E+02, 1.680E+02, 1.710E+02
 3.270E+03, 1.911E+02, 1.680E+02, 1.705E+02
 3.285E+03, 1.906E+02, 1.680E+02, 1.701E+02
 3.300E+03, 1.901E+02, 1.680E+02, 1.697E+02
 3.315E+03, 1.895E+02, 1.680E+02, 1.692E+02
 3.330E+03, 1.888E+02, 1.680E+02, 1.688E+02
 3.345E+03, 1.882E+02, 1.680E+02, 1.683E+02
 3.360E+03, 1.876E+02, 1.680E+02, 1.679E+02
 3.375E+03, 1.869E+02, 1.680E+02, 1.674E+02
 3.390E+03, 1.863E+02, 1.680E+02, 1.670E+02
 3.405E+03, 1.857E+02, 1.680E+02, 1.666E+02
 3.420E+03, 1.851E+02, 1.680E+02, 1.662E+02
 3.435E+03, 1.845E+02, 1.680E+02, 1.658E+02
 3.450E+03, 1.840E+02, 1.680E+02, 1.654E+02
 3.465E+03, 1.834E+02, 1.680E+02, 1.650E+02
 3.480E+03, 1.827E+02, 1.680E+02, 1.646E+02
 3.495E+03, 1.822E+02, 1.680E+02, 1.644E+02
 3.510E+03, 1.819E+02, 1.680E+02, 1.641E+02
 3.525E+03, 1.816E+02, 1.680E+02, 1.638E+02
 3.540E+03, 1.812E+02, 1.680E+02, 1.636E+02
 3.555E+03, 1.807E+02, 1.680E+02, 1.632E+02
 3.570E+03, 1.802E+02, 1.680E+02, 1.629E+02
 3.585E+03, 1.799E+02, 1.680E+02, 1.627E+02
 3.600E+03, 1.795E+02, 1.680E+02, 1.623E+02
