s,C,C
Time,"Cable Temp","Shroud Temp"
 0.000E+00, 2.000E+01, 2.000E+01
 1.503E+01, 2.015E+01, 6.671E+01
 3.002E+01, 2.211E+01, 1.589E+02
 4.500E+01, 2.821E+01, 2.511E+02
 6.001E+01, 4.040E+01, 3.219E+02
 7.501E+01, 5.445E+01, 3.234E+02
 9.003E+01, 6.548E+01, 3.196E+02
 1.050E+02, 7.454E+01, 3.158E+02
 1.200E+02, 8.223E+01, 3.120E+02
 1.350E+02, 8.884E+01, 3.082E+02
 1.500E+02, 9.465E+01, 3.052E+02
 1.650E+02, 1.001E+02, 3.050E+02
 1.800E+02, 1.053E+02, 3.050E+02
 1.950E+02, 1.103E+02, 3.050E+02
 2.100E+02, 1.152E+02, 3.050E+02
 2.250E+02, 1.200E+02, 3.050E+02
 2.400E+02, 1.246E+02, 3.050E+02
 2.550E+02, 1.292E+02, 3.050E+02
 2.700E+02, 1.336E+02, 3.050E+02
 2.850E+02, 1.379E+02, 3.050E+02
 3.000E+02, 1.421E+02, 3.050E+02
 3.150E+02, 1.461E+02, 3.050E+02
 3.300E+02, 1.501E+02, 3.050E+02
 3.450E+02, 1.539E+02, 3.050E+02
 3.600E+02, 1.576E+02, 3.050E+02
 3.750E+02, 1.612E+02, 3.050E+02
 3.900E+02, 1.647E+02, 3.050E+02
 4.050E+02, 1.681E+02, 3.050E+02
 4.200E+02, 1.715E+02, 3.050E+02
 4.350E+02, 1.747E+02, 3.050E+02
 4.500E+02, 1.778E+02, 3.050E+02
 4.650E+02, 1.809E+02, 3.050E+02
 4.800E+02, 1.838E+02, 3.050E+02
 4.950E+02, 1.867E+02, 3.050E+02
 5.100E+02, 1.894E+02, 3.050E+02
 5.250E+02, 1.922E+02, 3.050E+02
 5.400E+02, 1.949E+02, 3.050E+02
 5.550E+02, 1.975E+02, 3.050E+02
 5.700E+02, 2.000E+02, 3.050E+02
 5.850E+02, 2.024E+02, 3.050E+02
 6.000E+02, 2.048E+02, 3.050E+02
 6.150E+02, 2.070E+02, 3.050E+02
 6.300E+02, 2.092E+02, 3.050E+02
 6.450E+02, 2.113E+02, 3.050E+02
 6.600E+02, 2.134E+02, 3.050E+02
 6.750E+02, 2.154E+02, 3.050E+02
 6.900E+02, 2.174E+02, 3.050E+02
 7.050E+02, 2.192E+02, 3.050E+02
 7.200E+02, 2.210E+02, 3.050E+02
 7.350E+02, 2.228E+02, 3.050E+02
 7.500E+02, 2.245E+02, 3.050E+02
 7.650E+02, 2.261E+02, 3.050E+02
 7.800E+02, 2.278E+02, 3.050E+02
 7.950E+02, 2.293E+02, 3.050E+02
 8.100E+02, 2.308E+02, 3.050E+02
 8.250E+02, 2.323E+02, 3.050E+02
 8.400E+02, 2.337E+02, 3.050E+02
 8.550E+02, 2.350E+02, 3.050E+02
 8.700E+02, 2.364E+02, 3.050E+02
 8.850E+02, 2.377E+02, 3.050E+02
 9.000E+02, 2.389E+02, 3.050E+02
 9.150E+02, 2.401E+02, 3.050E+02
 9.300E+02, 2.413E+02, 3.050E+02
 9.450E+02, 2.423E+02, 3.050E+02
 9.600E+02, 2.434E+02, 3.050E+02
 9.750E+02, 2.444E+02, 3.050E+02
 9.900E+02, 2.454E+02, 3.050E+02
 1.005E+03, 2.464E+02, 3.050E+02
 1.020E+03, 2.474E+02, 3.050E+02
 1.035E+03, 2.483E+02, 3.050E+02
 1.050E+03, 2.492E+02, 3.050E+02
 1.065E+03, 2.500E+02, 3.050E+02
 1.080E+03, 2.509E+02, 3.050E+02
 1.095E+03, 2.517E+02, 3.050E+02
 1.110E+03, 2.525E+02, 3.050E+02
 1.125E+03, 2.532E+02, 3.050E+02
 1.140E+03, 2.540E+02, 3.050E+02
 1.155E+03, 2.547E+02, 3.050E+02
 1.170E+03, 2.554E+02, 3.050E+02
 1.185E+03, 2.559E+02, 3.050E+02
 1.200E+03, 2.565E+02, 3.050E+02
 1.215E+03, 2.571E+02, 3.050E+02
 1.230E+03, 2.577E+02, 3.050E+02
 1.245E+03, 2.584E+02, 3.050E+02
 1.260E+03, 2.589E+02, 3.050E+02
 1.275E+03, 2.594E+02, 3.050E+02
 1.290E+03, 2.600E+02, 3.050E+02
 1.305E+03, 2.605E+02, 3.050E+02
 1.320E+03, 2.609E+02, 3.050E+02
 1.335E+03, 2.615E+02, 3.050E+02
 1.350E+03, 2.618E+02, 3.050E+02
 1.365E+03, 2.622E+02, 3.050E+02
 1.380E+03, 2.626E+02, 3.050E+02
 1.395E+03, 2.630E+02, 3.050E+02
 1.410E+03, 2.634E+02, 3.050E+02
 1.425E+03, 2.637E+02, 3.050E+02
 1.440E+03, 2.640E+02, 3.050E+02
 1.455E+03, 2.644E+02, 3.050E+02
 1.470E+03, 2.648E+02, 3.050E+02
 1.485E+03, 2.651E+02, 3.050E+02
 1.500E+03, 2.655E+02, 3.050E+02
 1.515E+03, 2.658E+02, 3.050E+02
 1.530E+03, 2.660E+02, 3.050E+02
 1.545E+03, 2.663E+02, 3.050E+02
 1.560E+03, 2.666E+02, 3.050E+02
 1.575E+03, 2.669E+02, 3.050E+02
 1.590E+03, 2.670E+02, 3.050E+02
 1.605E+03, 2.673E+02, 3.050E+02
 1.620E+03, 2.675E+02, 3.050E+02
 1.635E+03, 2.678E+02, 3.050E+02
 1.650E+03, 2.680E+02, 3.050E+02
 1.665E+03, 2.682E+02, 3.050E+02
 1.680E+03, 2.684E+02, 3.050E+02
 1.695E+03, 2.686E+02, 3.050E+02
 1.710E+03, 2.688E+02, 3.050E+02
 1.725E+03, 2.690E+02, 3.050E+02
 1.740E+03, 2.691E+02, 3.050E+02
 1.755E+03, 2.693E+02, 3.050E+02
 1.770E+03, 2.695E+02, 3.050E+02
 1.785E+03, 2.696E+02, 3.050E+02
 1.800E+03, 2.698E+02, 3.050E+02
 1.815E+03, 2.699E+02, 3.050E+02
 1.830E+03, 2.700E+02, 3.050E+02
 1.845E+03, 2.701E+02, 3.050E+02
 1.860E+03, 2.703E+02, 3.050E+02
 1.875E+03, 2.704E+02, 3.050E+02
 1.890E+03, 2.704E+02, 3.050E+02
 1.905E+03, 2.706E+02, 3.050E+02
 1.920E+03, 2.708E+02, 3.050E+02
 1.935E+03, 2.709E+02, 3.050E+02
 1.950E+03, 2.710E+02, 3.050E+02
 1.965E+03, 2.712E+02, 3.050E+02
 1.980E+03, 2.712E+02, 3.050E+02
 1.995E+03, 2.713E+02, 3.050E+02
 2.010E+03, 2.714E+02, 3.050E+02
 2.025E+03, 2.715E+02, 3.050E+02
 2.040E+03, 2.716E+02, 3.050E+02
 2.055E+03, 2.717E+02, 3.050E+02
 2.070E+03, 2.718E+02, 3.050E+02
 2.085E+03, 2.719E+02, 3.050E+02
 2.100E+03, 2.720E+02, 3.040E+02
 2.115E+03, 2.718E+02, 2.996E+02
 2.130E+03, 2.713E+02, 2.949E+02
 2.145E+03, 2.705E+02, 2.903E+02
 2.160E+03, 2.694E+02, 2.856E+02
 2.175E+03, 2.682E+02, 2.810E+02
 2.190E+03, 2.668E+02, 2.763E+02
 2.205E+03, 2.652E+02, 2.717E+02
 2.220E+03, 2.636E+02, 2.670E+02
 2.235E+03, 2.619E+02, 2.624E+02
 2.250E+03, 2.602E+02, 2.577E+02
 2.265E+03, 2.583E+02, 2.531E+02
 2.280E+03, 2.565E+02, 2.484E+02
 2.295E+03, 2.546E+02, 2.438E+02
 2.310E+03, 2.527E+02, 2.392E+02
 2.325E+03, 2.506E+02, 2.348E+02
 2.340E+03, 2.486E+02, 2.338E+02
 2.355E+03, 2.469E+02, 2.338E+02
 2.370E+03, 2.454E+02, 2.338E+02
 2.385E+03, 2.441E+02, 2.338E+02
 2.400E+03, 2.428E+02, 2.338E+02
