s,C,C
Time,"Cable Temp","Shroud Temp"
 0.000E+00, 2.400E+01, 2.400E+01
 1.502E+01, 2.401E+01, 6.148E+01
 3.003E+01, 2.425E+01, 1.357E+02
 4.500E+01, 2.531E+01, 2.100E+02
 6.002E+01, 2.784E+01, 2.843E+02
 7.500E+01, 3.260E+01, 3.586E+02
 9.000E+01, 4.063E+01, 4.329E+02
 1.050E+02, 5.308E+01, 4.700E+02
 1.200E+02, 6.870E+01, 4.700E+02
 1.350E+02, 8.464E+01, 4.700E+02
 1.500E+02, 9.975E+01, 4.700E+02
 1.650E+02, 1.138E+02, 4.700E+02
 1.800E+02, 1.267E+02, 4.700E+02
 1.950E+02, 1.389E+02, 4.700E+02
 2.100E+02, 1.503E+02, 4.700E+02
 2.250E+02, 1.610E+02, 4.700E+02
 2.400E+02, 1.711E+02, 4.700E+02
 2.550E+02, 1.806E+02, 4.700E+02
 2.700E+02, 1.895E+02, 4.700E+02
 2.850E+02, 1.980E+02, 4.700E+02
 3.000E+02, 2.063E+02, 4.700E+02
 3.150E+02, 2.141E+02, 4.700E+02
 3.300E+02, 2.218E+02, 4.700E+02
 3.450E+02, 2.291E+02, 4.700E+02
 3.600E+02, 2.361E+02, 4.700E+02
 3.750E+02, 2.427E+02, 4.700E+02
 3.900E+02, 2.491E+02, 4.700E+02
 4.050E+02, 2.554E+02, 4.700E+02
 4.200E+02, 2.613E+02, 4.700E+02
 4.350E+02, 2.670E+02, 4.700E+02
 4.500E+02, 2.726E+02, 4.700E+02
 4.650E+02, 2.781E+02, 4.700E+02
 4.800E+02, 2.833E+02, 4.700E+02
 4.950E+02, 2.881E+02, 4.700E+02
 5.100E+02, 2.929E+02, 4.700E+02
 5.250E+02, 2.975E+02, 4.700E+02
 5.400E+02, 3.019E+02, 4.700E+02
 5.550E+02, 3.061E+02, 4.700E+02
 5.700E+02, 3.103E+02, 4.700E+02
 5.850E+02, 3.143E+02, 4.700E+02
 6.000E+02, 3.183E+02, 4.700E+02
 6.150E+02, 3.222E+02, 4.700E+02
 6.300E+02, 3.258E+02, 4.700E+02
 6.450E+02, 3.291E+02, 4.700E+02
 6.600E+02, 3.323E+02, 4.700E+02
 6.750E+02, 3.354E+02, 4.700E+02
 6.900E+02, 3.385E+02, 4.700E+02
 7.050E+02, 3.415E+02, 4.700E+02
 7.200E+02, 3.443E+02, 4.700E+02
 7.350E+02, 3.472E+02, 4.700E+02
 7.500E+02, 3.499E+02, 4.700E+02
 7.650E+02, 3.525E+02, 4.700E+02
 7.800E+02, 3.549E+02, 4.700E+02
 7.950E+02, 3.573E+02, 4.700E+02
 8.100E+02, 3.596E+02, 4.700E+02
 8.250E+02, 3.619E+02, 4.700E+02
 8.400E+02, 3.641E+02, 4.700E+02
 8.550E+02, 3.663E+02, 4.700E+02
 8.700E+02, 3.684E+02, 4.700E+02
 8.850E+02, 3.704E+02, 4.700E+02
 9.000E+02, 3.724E+02, 4.700E+02
 9.150E+02, 3.741E+02, 4.700E+02
 9.300E+02, 3.757E+02, 4.700E+02
 9.450E+02, 3.774E+02, 4.700E+02
 9.600E+02, 3.791E+02, 4.700E+02
 9.750E+02, 3.807E+02, 4.700E+02
 9.900E+02, 3.822E+02, 4.700E+02
 1.005E+03, 3.837E+02, 4.700E+02
 1.020E+03, 3.851E+02, 4.700E+02
 1.035E+03, 3.863E+02, 4.700E+02
 1.050E+03, 3.876E+02, 4.700E+02
 1.065E+03, 3.888E+02, 4.700E+02
 1.080E+03, 3.900E+02, 4.700E+02
 1.095E+03, 3.912E+02, 4.700E+02
 1.110E+03, 3.924E+02, 4.700E+02
 1.125E+03, 3.936E+02, 4.700E+02
 1.140E+03, 3.947E+02, 4.700E+02
 1.155E+03, 3.957E+02, 4.700E+02
 1.170E+03, 3.968E+02, 4.700E+02
 1.185E+03, 3.978E+02, 4.700E+02
 1.200E+03, 3.986E+02, 4.700E+02
 1.215E+03, 3.994E+02, 4.700E+02
 1.230E+03, 4.002E+02, 4.700E+02
 1.245E+03, 4.010E+02, 4.700E+02
 1.260E+03, 4.017E+02, 4.700E+02
 1.275E+03, 4.024E+02, 4.700E+02
 1.290E+03, 4.029E+02, 4.700E+02
 1.305E+03, 4.036E+02, 4.700E+02
 1.320E+03, 4.042E+02, 4.700E+02
 1.335E+03, 4.047E+02, 4.700E+02
 1.350E+03, 4.053E+02, 4.700E+02
 1.365E+03, 4.060E+02, 4.700E+02
 1.380E+03, 4.067E+02, 4.700E+02
 1.395E+03, 4.073E+02, 4.700E+02
 1.410E+03, 4.078E+02, 4.700E+02
 1.425E+03, 4.083E+02, 4.700E+02
 1.440E+03, 4.087E+02, 4.700E+02
 1.455E+03, 4.091E+02, 4.700E+02
 1.470E+03, 4.095E+02, 4.700E+02
 1.485E+03, 4.100E+02, 4.700E+02
 1.500E+03, 4.104E+02, 4.700E+02
 1.515E+03, 4.108E+02, 4.700E+02
 1.530E+03, 4.112E+02, 4.700E+02
 1.545E+03, 4.115E+02, 4.700E+02
 1.560E+03, 4.119E+02, 4.700E+02
 1.575E+03, 4.121E+02, 4.700E+02
 1.590E+03, 4.124E+02, 4.700E+02
 1.605E+03, 4.126E+02, 4.700E+02
 1.620E+03, 4.129E+02, 4.700E+02
 1.635E+03, 4.133E+02, 4.700E+02
 1.650E+03, 4.137E+02, 4.700E+02
 1.665E+03, 4.140E+02, 4.700E+02
 1.680E+03, 4.142E+02, 4.700E+02
 1.695E+03, 4.144E+02, 4.700E+02
 1.710E+03, 4.146E+02, 4.700E+02
 1.725E+03, 4.150E+02, 4.700E+02
 1.740E+03, 4.155E+02, 4.700E+02
 1.755E+03, 4.158E+02, 4.700E+02
 1.770E+03, 4.158E+02, 4.700E+02
 1.785E+03, 4.159E+02, 4.700E+02
 1.800E+03, 4.160E+02, 4.700E+02
