s,C,C
Time,"Cable Temp","Shroud Temp"
 0.000E+00, 2.800E+01, 2.800E+01
 1.500E+01, 2.818E+01, 6.224E+01
 3.002E+01, 2.987E+01, 1.300E+02
 4.503E+01, 3.414E+01, 1.977E+02
 6.003E+01, 4.177E+01, 2.656E+02
 7.500E+01, 5.398E+01, 3.333E+02
 9.000E+01, 7.219E+01, 4.010E+02
 1.050E+02, 9.804E+01, 4.650E+02
 1.200E+02, 1.258E+02, 4.800E+02
 1.350E+02, 1.477E+02, 4.800E+02
 1.500E+02, 1.659E+02, 4.800E+02
 1.650E+02, 1.821E+02, 4.800E+02
 1.800E+02, 1.967E+02, 4.800E+02
 1.950E+02, 2.104E+02, 4.800E+02
 2.100E+02, 2.231E+02, 4.800E+02
 2.250E+02, 2.350E+02, 4.800E+02
 2.400E+02, 2.463E+02, 4.800E+02
 2.550E+02, 2.569E+02, 4.800E+02
 2.700E+02, 2.670E+02, 4.800E+02
 2.850E+02, 2.767E+02, 4.800E+02
 3.000E+02, 2.858E+02, 4.800E+02
 3.150E+02, 2.944E+02, 4.800E+02
 3.300E+02, 3.026E+02, 4.800E+02
 3.450E+02, 3.104E+02, 4.800E+02
 3.600E+02, 3.177E+02, 4.800E+02
 3.750E+02, 3.247E+02, 4.800E+02
 3.900E+02, 3.313E+02, 4.800E+02
 4.050E+02, 3.376E+02, 4.800E+02
 4.200E+02, 3.438E+02, 4.800E+02
 4.350E+02, 3.494E+02, 4.800E+02
 4.500E+02, 3.549E+02, 4.800E+02
 4.650E+02, 3.600E+02, 4.800E+02
 4.800E+02, 3.648E+02, 4.800E+02
 4.950E+02, 3.696E+02, 4.800E+02
 5.100E+02, 3.739E+02, 4.800E+02
 5.250E+02, 3.780E+02, 4.800E+02
 5.400E+02, 3.819E+02, 4.800E+02
 5.550E+02, 3.857E+02, 4.800E+02
 5.700E+02, 3.892E+02, 4.800E+02
 5.850E+02, 3.925E+02, 4.800E+02
 6.000E+02, 3.957E+02, 4.800E+02
 6.150E+02, 3.986E+02, 4.800E+02
 6.300E+02, 4.014E+02, 4.800E+02
 6.450E+02, 4.041E+02, 4.800E+02
 6.600E+02, 4.065E+02, 4.800E+02
 6.750E+02, 4.090E+02, 4.800E+02
 6.900E+02, 4.112E+02, 4.800E+02
 7.050E+02, 4.134E+02, 4.800E+02
 7.200E+02, 4.154E+02, 4.800E+02
 7.350E+02, 4.173E+02, 4.800E+02
 7.500E+02, 4.191E+02, 4.800E+02
 7.650E+02, 4.208E+02, 4.800E+02
 7.800E+02, 4.224E+02, 4.800E+02
 7.950E+02, 4.239E+02, 4.800E+02
 8.100E+02, 4.255E+02, 4.800E+02
 8.250E+02, 4.269E+02, 4.800E+02
 8.400E+02, 4.281E+02, 4.800E+02
 8.550E+02, 4.292E+02, 4.800E+02
 8.700E+02, 4.303E+02, 4.800E+02
 8.850E+02, 4.315E+02, 4.800E+02
 9.000E+02, 4.326E+02, 4.800E+02
 9.150E+02, 4.335E+02, 4.800E+02
 9.300E+02, 4.345E+02, 4.800E+02
 9.450E+02, 4.353E+02, 4.800E+02
 9.600E+02, 4.360E+02, 4.800E+02
 9.750E+02, 4.367E+02, 4.800E+02
 9.900E+02, 4.374E+02, 4.800E+02
 1.005E+03, 4.381E+02, 4.800E+02
 1.020E+03, 4.388E+02, 4.800E+02
 1.035E+03, 4.393E+02, 4.800E+02
 1.050E+03, 4.400E+02, 4.800E+02
 1.065E+03, 4.405E+02, 4.800E+02
 1.080E+03, 4.411E+02, 4.800E+02
 1.095E+03, 4.417E+02, 4.800E+02
 1.110E+03, 4.421E+02, 4.800E+02
 1.125E+03, 4.426E+02, 4.800E+02
 1.140E+03, 4.429E+02, 4.800E+02
 1.155E+03, 4.433E+02, 4.800E+02
 1.170E+03, 4.436E+02, 4.800E+02
 1.185E+03, 4.441E+02, 4.800E+02
 1.200E+03, 4.445E+02, 4.800E+02
 1.215E+03, 4.447E+02, 4.800E+02
 1.230E+03, 4.449E+02, 4.800E+02
 1.245E+03, 4.452E+02, 4.800E+02
 1.260E+03, 4.455E+02, 4.800E+02
 1.275E+03, 4.457E+02, 4.800E+02
 1.290E+03, 4.459E+02, 4.800E+02
 1.305E+03, 4.461E+02, 4.800E+02
 1.320E+03, 4.464E+02, 4.800E+02
 1.335E+03, 4.466E+02, 4.800E+02
 1.350E+03, 4.467E+02, 4.800E+02
 1.365E+03, 4.468E+02, 4.800E+02
 1.380E+03, 4.470E+02, 4.800E+02
 1.395E+03, 4.472E+02, 4.800E+02
 1.410E+03, 4.474E+02, 4.800E+02
 1.425E+03, 4.474E+02, 4.780E+02
 1.440E+03, 4.463E+02, 4.694E+02
 1.455E+03, 4.439E+02, 4.604E+02
 1.470E+03, 4.408E+02, 4.513E+02
 1.485E+03, 4.373E+02, 4.423E+02
 1.500E+03, 4.336E+02, 4.333E+02
 1.515E+03, 4.295E+02, 4.242E+02
 1.530E+03, 4.252E+02, 4.152E+02
 1.545E+03, 4.208E+02, 4.062E+02
 1.560E+03, 4.162E+02, 3.971E+02
 1.575E+03, 4.116E+02, 3.881E+02
 1.590E+03, 4.068E+02, 3.790E+02
 1.605E+03, 4.019E+02, 3.700E+02
 1.620E+03, 3.970E+02, 3.609E+02
 1.635E+03, 3.921E+02, 3.519E+02
 1.650E+03, 3.870E+02, 3.429E+02
 1.665E+03, 3.819E+02, 3.338E+02
 1.680E+03, 3.769E+02, 3.248E+02
 1.695E+03, 3.718E+02, 3.157E+02
 1.710E+03, 3.667E+02, 3.067E+02
 1.725E+03, 3.617E+02, 2.997E+02
 1.740E+03, 3.571E+02, 2.992E+02
 1.755E+03, 3.533E+02, 2.992E+02
 1.770E+03, 3.497E+02, 2.992E+02
 1.785E+03, 3.465E+02, 2.992E+02
 1.800E+03, 3.434E+02, 2.992E+02
