s,C,C
Time,"Cable Temp","Shroud Temp"
 0.000E+00, 2.800E+01, 2.800E+01
 1.511E+01, 2.801E+01, 6.215E+01
 3.007E+01, 2.833E+01, 1.292E+02
 4.500E+01, 2.972E+01, 1.959E+02
 6.002E+01, 3.292E+01, 2.628E+02
 7.503E+01, 3.867E+01, 3.299E+02
 9.001E+01, 4.782E+01, 3.969E+02
 1.050E+02, 6.144E+01, 4.602E+02
 1.200E+02, 7.999E+01, 4.750E+02
 1.350E+02, 1.001E+02, 4.750E+02
 1.500E+02, 1.190E+02, 4.750E+02
 1.650E+02, 1.364E+02, 4.750E+02
 1.800E+02, 1.523E+02, 4.750E+02
 1.950E+02, 1.670E+02, 4.750E+02
 2.100E+02, 1.807E+02, 4.750E+02
 2.250E+02, 1.934E+02, 4.750E+02
 2.400E+02, 2.054E+02, 4.750E+02
 2.550E+02, 2.168E+02, 4.750E+02
 2.700E+02, 2.276E+02, 4.750E+02
 2.850E+02, 2.377E+02, 4.750E+02
 3.000E+02, 2.473E+02, 4.750E+02
 3.150E+02, 2.564E+02, 4.750E+02
 3.300E+02, 2.650E+02, 4.750E+02
 3.450E+02, 2.733E+02, 4.750E+02
 3.600E+02, 2.814E+02, 4.750E+02
 3.750E+02, 2.890E+02, 4.750E+02
 3.900E+02, 2.963E+02, 4.750E+02
 4.050E+02, 3.033E+02, 4.750E+02
 4.200E+02, 3.100E+02, 4.750E+02
 4.350E+02, 3.164E+02, 4.750E+02
 4.500E+02, 3.225E+02, 4.750E+02
 4.650E+02, 3.283E+02, 4.750E+02
 4.800E+02, 3.338E+02, 4.750E+02
 4.950E+02, 3.391E+02, 4.750E+02
 5.100E+02, 3.440E+02, 4.750E+02
 5.250E+02, 3.489E+02, 4.750E+02
 5.400E+02, 3.535E+02, 4.750E+02
 5.550E+02, 3.579E+02, 4.750E+02
 5.700E+02, 3.621E+02, 4.750E+02
 5.850E+02, 3.662E+02, 4.750E+02
 6.000E+02, 3.701E+02, 4.750E+02
 6.150E+02, 3.738E+02, 4.750E+02
 6.300E+02, 3.772E+02, 4.750E+02
 6.450E+02, 3.806E+02, 4.750E+02
 6.600E+02, 3.837E+02, 4.750E+02
 6.750E+02, 3.867E+02, 4.750E+02
 6.900E+02, 3.895E+02, 4.750E+02
 7.050E+02, 3.923E+02, 4.750E+02
 7.200E+02, 3.949E+02, 4.750E+02
 7.350E+02, 3.974E+02, 4.750E+02
 7.500E+02, 3.998E+02, 4.750E+02
 7.650E+02, 4.021E+02, 4.750E+02
 7.800E+02, 4.043E+02, 4.750E+02
 7.950E+02, 4.064E+02, 4.750E+02
 8.100E+02, 4.084E+02, 4.750E+02
 8.250E+02, 4.103E+02, 4.750E+02
 8.400E+02, 4.120E+02, 4.750E+02
 8.550E+02, 4.137E+02, 4.750E+02
 8.700E+02, 4.154E+02, 4.750E+02
 8.850E+02, 4.170E+02, 4.750E+02
 9.000E+02, 4.186E+02, 4.750E+02
 9.150E+02, 4.200E+02, 4.750E+02
 9.300E+02, 4.213E+02, 4.750E+02
 9.450E+02, 4.225E+02, 4.750E+02
 9.600E+02, 4.237E+02, 4.750E+02
 9.750E+02, 4.249E+02, 4.750E+02
 9.900E+02, 4.259E+02, 4.750E+02
 1.005E+03, 4.269E+02, 4.750E+02
 1.020E+03, 4.280E+02, 4.750E+02
 1.035E+03, 4.289E+02, 4.750E+02
 1.050E+03, 4.298E+02, 4.750E+02
 1.065E+03, 4.306E+02, 4.750E+02
 1.080E+03, 4.314E+02, 4.750E+02
 1.095E+03, 4.322E+02, 4.750E+02
 1.110E+03, 4.329E+02, 4.750E+02
 1.125E+03, 4.335E+02, 4.750E+02
 1.140E+03, 4.341E+02, 4.750E+02
 1.155E+03, 4.348E+02, 4.750E+02
 1.170E+03, 4.354E+02, 4.750E+02
 1.185E+03, 4.361E+02, 4.750E+02
 1.200E+03, 4.366E+02, 4.750E+02
 1.215E+03, 4.372E+02, 4.750E+02
 1.230E+03, 4.377E+02, 4.750E+02
 1.245E+03, 4.382E+02, 4.750E+02
 1.260E+03, 4.385E+02, 4.750E+02
 1.275E+03, 4.389E+02, 4.750E+02
 1.290E+03, 4.392E+02, 4.750E+02
 1.305E+03, 4.396E+02, 4.746E+02
 1.320E+03, 4.399E+02, 4.694E+02
 1.335E+03, 4.399E+02, 4.627E+02
 1.350E+03, 4.393E+02, 4.560E+02
 1.365E+03, 4.381E+02, 4.493E+02
 1.380E+03, 4.365E+02, 4.426E+02
 1.395E+03, 4.347E+02, 4.359E+02
 1.410E+03, 4.327E+02, 4.292E+02
 1.425E+03, 4.304E+02, 4.225E+02
 1.440E+03, 4.279E+02, 4.158E+02
 1.455E+03, 4.252E+02, 4.091E+02
 1.470E+03, 4.224E+02, 4.023E+02
 1.485E+03, 4.194E+02, 3.956E+02
 1.500E+03, 4.163E+02, 3.889E+02
 1.515E+03, 4.131E+02, 3.822E+02
 1.530E+03, 4.097E+02, 3.755E+02
 1.545E+03, 4.064E+02, 3.688E+02
 1.560E+03, 4.029E+02, 3.621E+02
 1.575E+03, 3.994E+02, 3.554E+02
 1.590E+03, 3.958E+02, 3.487E+02
 1.605E+03, 3.921E+02, 3.420E+02
 1.620E+03, 3.883E+02, 3.353E+02
 1.635E+03, 3.844E+02, 3.286E+02
 1.650E+03, 3.806E+02, 3.219E+02
 1.665E+03, 3.767E+02, 3.152E+02
 1.680E+03, 3.726E+02, 3.085E+02
 1.695E+03, 3.687E+02, 3.018E+02
 1.710E+03, 3.648E+02, 2.966E+02
 1.725E+03, 3.609E+02, 2.962E+02
 1.740E+03, 3.571E+02, 2.962E+02
 1.755E+03, 3.536E+02, 2.962E+02
 1.770E+03, 3.504E+02, 2.962E+02
 1.785E+03, 3.475E+02, 2.962E+02
 1.800E+03, 3.446E+02, 2.962E+02
