s,C,C,C
Time,"Cable Temp","Shroud Temp","Conduit"
 0.000E+00, 3.100E+01, 3.100E+01, 3.100E+01
 1.507E+01, 3.100E+01, 6.857E+01, 3.106E+01
 3.004E+01, 3.100E+01, 1.425E+02, 3.162E+01
 4.504E+01, 3.102E+01, 2.164E+02, 3.322E+01
 6.001E+01, 3.106E+01, 2.903E+02, 3.644E+01
 7.500E+01, 3.114E+01, 3.641E+02, 4.199E+01
 9.004E+01, 3.138E+01, 4.382E+02, 5.077E+01
 1.050E+02, 3.176E+01, 4.750E+02, 6.300E+01
 1.200E+02, 3.237E+01, 4.750E+02, 7.576E+01
 1.350E+02, 3.313E+01, 4.750E+02, 8.826E+01
 1.500E+02, 3.407E+01, 4.750E+02, 1.006E+02
 1.650E+02, 3.516E+01, 4.750E+02, 1.127E+02
 1.800E+02, 3.645E+01, 4.750E+02, 1.245E+02
 1.950E+02, 3.796E+01, 4.750E+02, 1.361E+02
 2.100E+02, 3.969E+01, 4.750E+02, 1.474E+02
 2.250E+02, 4.161E+01, 4.750E+02, 1.585E+02
 2.400E+02, 4.366E+01, 4.750E+02, 1.693E+02
 2.550E+02, 4.590E+01, 4.750E+02, 1.798E+02
 2.700E+02, 4.835E+01, 4.750E+02, 1.900E+02
 2.850E+02, 5.099E+01, 4.750E+02, 2.000E+02
 3.000E+02, 5.385E+01, 4.750E+02, 2.097E+02
 3.150E+02, 5.690E+01, 4.750E+02, 2.192E+02
 3.300E+02, 6.018E+01, 4.750E+02, 2.283E+02
 3.450E+02, 6.370E+01, 4.750E+02, 2.373E+02
 3.600E+02, 6.740E+01, 4.750E+02, 2.459E+02
 3.750E+02, 7.129E+01, 4.750E+02, 2.543E+02
 3.900E+02, 7.538E+01, 4.750E+02, 2.624E+02
 4.050E+02, 7.965E+01, 4.750E+02, 2.702E+02
 4.200E+02, 8.407E+01, 4.750E+02, 2.778E+02
 4.350E+02, 8.865E+01, 4.750E+02, 2.851E+02
 4.500E+02, 9.346E+01, 4.750E+02, 2.921E+02
 4.650E+02, 9.850E+01, 4.750E+02, 2.989E+02
 4.800E+02, 1.037E+02, 4.750E+02, 3.054E+02
 4.950E+02, 1.090E+02, 4.750E+02, 3.117E+02
 5.100E+02, 1.144E+02, 4.750E+02, 3.177E+02
 5.250E+02, 1.199E+02, 4.750E+02, 3.235E+02
 5.400E+02, 1.255E+02, 4.750E+02, 3.290E+02
 5.550E+02, 1.312E+02, 4.750E+02, 3.342E+02
 5.700E+02, 1.370E+02, 4.750E+02, 3.392E+02
 5.850E+02, 1.428E+02, 4.750E+02, 3.440E+02
 6.000E+02, 1.487E+02, 4.750E+02, 3.486E+02
 6.150E+02, 1.547E+02, 4.750E+02, 3.531E+02
 6.300E+02, 1.608E+02, 4.750E+02, 3.573E+02
 6.450E+02, 1.669E+02, 4.750E+02, 3.613E+02
 6.600E+02, 1.729E+02, 4.750E+02, 3.649E+02
 6.750E+02, 1.789E+02, 4.750E+02, 3.683E+02
 6.900E+02, 1.848E+02, 4.750E+02, 3.717E+02
 7.050E+02, 1.907E+02, 4.750E+02, 3.749E+02
 7.200E+02, 1.966E+02, 4.750E+02, 3.779E+02
 7.350E+02, 2.025E+02, 4.750E+02, 3.807E+02
 7.500E+02, 2.083E+02, 4.750E+02, 3.835E+02
 7.650E+02, 2.140E+02, 4.750E+02, 3.861E+02
 7.800E+02, 2.197E+02, 4.750E+02, 3.887E+02
 7.950E+02, 2.254E+02, 4.750E+02, 3.910E+02
 8.100E+02, 2.309E+02, 4.750E+02, 3.932E+02
 8.250E+02, 2.364E+02, 4.750E+02, 3.953E+02
 8.400E+02, 2.417E+02, 4.750E+02, 3.973E+02
 8.550E+02, 2.469E+02, 4.750E+02, 3.991E+02
 8.700E+02, 2.520E+02, 4.750E+02, 4.010E+02
 8.850E+02, 2.572E+02, 4.750E+02, 4.029E+02
 9.000E+02, 2.622E+02, 4.750E+02, 4.046E+02
 9.150E+02, 2.671E+02, 4.750E+02, 4.061E+02
 9.300E+02, 2.719E+02, 4.750E+02, 4.076E+02
 9.450E+02, 2.766E+02, 4.750E+02, 4.090E+02
 9.600E+02, 2.812E+02, 4.750E+02, 4.103E+02
 9.750E+02, 2.856E+02, 4.750E+02, 4.116E+02
 9.900E+02, 2.900E+02, 4.750E+02, 4.129E+02
 1.005E+03, 2.943E+02, 4.750E+02, 4.141E+02
 1.020E+03, 2.986E+02, 4.750E+02, 4.152E+02
 1.035E+03, 3.027E+02, 4.750E+02, 4.164E+02
 1.050E+03, 3.066E+02, 4.750E+02, 4.173E+02
 1.065E+03, 3.105E+02, 4.750E+02, 4.183E+02
 1.080E+03, 3.143E+02, 4.750E+02, 4.192E+02
 1.095E+03, 3.179E+02, 4.750E+02, 4.201E+02
 1.110E+03, 3.215E+02, 4.750E+02, 4.211E+02
 1.125E+03, 3.251E+02, 4.750E+02, 4.220E+02
 1.140E+03, 3.285E+02, 4.750E+02, 4.227E+02
 1.155E+03, 3.319E+02, 4.750E+02, 4.236E+02
 1.170E+03, 3.352E+02, 4.750E+02, 4.244E+02
 1.185E+03, 3.383E+02, 4.750E+02, 4.251E+02
 1.200E+03, 3.414E+02, 4.750E+02, 4.258E+02
 1.215E+03, 3.444E+02, 4.750E+02, 4.265E+02
 1.230E+03, 3.473E+02, 4.750E+02, 4.270E+02
 1.245E+03, 3.501E+02, 4.750E+02, 4.276E+02
 1.260E+03, 3.527E+02, 4.750E+02, 4.280E+02
 1.275E+03, 3.553E+02, 4.750E+02, 4.285E+02
 1.290E+03, 3.579E+02, 4.750E+02, 4.291E+02
 1.305E+03, 3.605E+02, 4.750E+02, 4.297E+02
 1.320E+03, 3.629E+02, 4.750E+02, 4.301E+02
 1.335E+03, 3.652E+02, 4.750E+02, 4.306E+02
 1.350E+03, 3.675E+02, 4.750E+02, 4.312E+02
 1.365E+03, 3.697E+02, 4.750E+02, 4.317E+02
 1.380E+03, 3.720E+02, 4.750E+02, 4.322E+02
 1.395E+03, 3.741E+02, 4.750E+02, 4.327E+02
 1.410E+03, 3.762E+02, 4.750E+02, 4.331E+02
 1.425E+03, 3.781E+02, 4.750E+02, 4.335E+02
 1.440E+03, 3.801E+02, 4.750E+02, 4.339E+02
 1.455E+03, 3.819E+02, 4.750E+02, 4.341E+02
 1.470E+03, 3.836E+02, 4.750E+02, 4.345E+02
 1.485E+03, 3.854E+02, 4.750E+02, 4.349E+02
 1.500E+03, 3.871E+02, 4.750E+02, 4.352E+02
 1.515E+03, 3.888E+02, 4.750E+02, 4.355E+02
 1.530E+03, 3.905E+02, 4.750E+02, 4.358E+02
 1.545E+03, 3.920E+02, 4.750E+02, 4.361E+02
 1.560E+03, 3.936E+02, 4.750E+02, 4.364E+02
 1.575E+03, 3.950E+02, 4.750E+02, 4.366E+02
 1.590E+03, 3.964E+02, 4.750E+02, 4.368E+02
 1.605E+03, 3.978E+02, 4.750E+02, 4.371E+02
 1.620E+03, 3.991E+02, 4.750E+02, 4.373E+02
 1.635E+03, 4.003E+02, 4.750E+02, 4.376E+02
 1.650E+03, 4.016E+02, 4.750E+02, 4.378E+02
 1.665E+03, 4.028E+02, 4.750E+02, 4.380E+02
 1.680E+03, 4.039E+02, 4.750E+02, 4.383E+02
 1.695E+03, 4.051E+02, 4.750E+02, 4.385E+02
 1.710E+03, 4.062E+02, 4.750E+02, 4.387E+02
 1.725E+03, 4.073E+02, 4.750E+02, 4.389E+02
 1.740E+03, 4.083E+02, 4.750E+02, 4.389E+02
 1.755E+03, 4.092E+02, 4.750E+02, 4.391E+02
 1.770E+03, 4.102E+02, 4.750E+02, 4.393E+02
 1.785E+03, 4.111E+02, 4.750E+02, 4.394E+02
 1.800E+03, 4.120E+02, 4.750E+02, 4.394E+02
 1.815E+03, 4.128E+02, 4.750E+02, 4.395E+02
 1.830E+03, 4.136E+02, 4.750E+02, 4.396E+02
 1.845E+03, 4.144E+02, 4.750E+02, 4.397E+02
 1.860E+03, 4.151E+02, 4.750E+02, 4.398E+02
 1.875E+03, 4.158E+02, 4.750E+02, 4.400E+02
 1.890E+03, 4.165E+02, 4.750E+02, 4.399E+02
 1.905E+03, 4.171E+02, 4.750E+02, 4.401E+02
 1.920E+03, 4.178E+02, 4.750E+02, 4.402E+02
 1.935E+03, 4.184E+02, 4.750E+02, 4.402E+02
 1.950E+03, 4.190E+02, 4.750E+02, 4.403E+02
 1.965E+03, 4.196E+02, 4.750E+02, 4.404E+02
 1.980E+03, 4.202E+02, 4.750E+02, 4.406E+02
 1.995E+03, 4.208E+02, 4.750E+02, 4.407E+02
 2.010E+03, 4.214E+02, 4.750E+02, 4.407E+02
 2.025E+03, 4.219E+02, 4.750E+02, 4.407E+02
 2.040E+03, 4.223E+02, 4.750E+02, 4.408E+02
 2.055E+03, 4.229E+02, 4.750E+02, 4.410E+02
 2.070E+03, 4.235E+02, 4.750E+02, 4.413E+02
 2.085E+03, 4.240E+02, 4.750E+02, 4.414E+02
 2.100E+03, 4.245E+02, 4.750E+02, 4.414E+02
 2.115E+03, 4.249E+02, 4.750E+02, 4.415E+02
 2.130E+03, 4.253E+02, 4.750E+02, 4.415E+02
 2.145E+03, 4.257E+02, 4.750E+02, 4.417E+02
 2.160E+03, 4.261E+02, 4.750E+02, 4.417E+02
 2.175E+03, 4.265E+02, 4.750E+02, 4.418E+02
 2.190E+03, 4.269E+02, 4.750E+02, 4.419E+02
 2.205E+03, 4.273E+02, 4.750E+02, 4.419E+02
 2.220E+03, 4.277E+02, 4.750E+02, 4.420E+02
 2.235E+03, 4.280E+02, 4.750E+02, 4.419E+02
 2.250E+03, 4.282E+02, 4.750E+02, 4.420E+02
 2.265E+03, 4.284E+02, 4.750E+02, 4.420E+02
 2.280E+03, 4.287E+02, 4.750E+02, 4.420E+02
 2.295E+03, 4.290E+02, 4.750E+02, 4.422E+02
 2.310E+03, 4.294E+02, 4.750E+02, 4.423E+02
 2.325E+03, 4.297E+02, 4.750E+02, 4.423E+02
 2.340E+03, 4.300E+02, 4.750E+02, 4.424E+02
 2.355E+03, 4.304E+02, 4.750E+02, 4.426E+02
 2.370E+03, 4.307E+02, 4.750E+02, 4.428E+02
 2.385E+03, 4.311E+02, 4.750E+02, 4.429E+02
 2.400E+03, 4.314E+02, 4.750E+02, 4.429E+02
 2.415E+03, 4.316E+02, 4.750E+02, 4.429E+02
 2.430E+03, 4.318E+02, 4.750E+02, 4.429E+02
 2.445E+03, 4.319E+02, 4.750E+02, 4.429E+02
 2.460E+03, 4.320E+02, 4.750E+02, 4.429E+02
 2.475E+03, 4.322E+02, 4.750E+02, 4.430E+02
 2.490E+03, 4.325E+02, 4.750E+02, 4.430E+02
 2.505E+03, 4.326E+02, 4.750E+02, 4.429E+02
 2.520E+03, 4.328E+02, 4.750E+02, 4.428E+02
 2.535E+03, 4.329E+02, 4.750E+02, 4.428E+02
 2.550E+03, 4.331E+02, 4.750E+02, 4.430E+02
 2.565E+03, 4.334E+02, 4.750E+02, 4.432E+02
 2.580E+03, 4.336E+02, 4.750E+02, 4.432E+02
 2.595E+03, 4.338E+02, 4.750E+02, 4.433E+02
 2.610E+03, 4.340E+02, 4.750E+02, 4.434E+02
 2.625E+03, 4.342E+02, 4.750E+02, 4.433E+02
 2.640E+03, 4.343E+02, 4.750E+02, 4.433E+02
 2.655E+03, 4.344E+02, 4.750E+02, 4.434E+02
 2.670E+03, 4.345E+02, 4.750E+02, 4.434E+02
 2.685E+03, 4.346E+02, 4.750E+02, 4.433E+02
 2.700E+03, 4.346E+02, 4.750E+02, 4.432E+02
 2.715E+03, 4.346E+02, 4.750E+02, 4.430E+02
 2.730E+03, 4.346E+02, 4.750E+02, 4.429E+02
 2.745E+03, 4.345E+02, 4.750E+02, 4.427E+02
 2.760E+03, 4.344E+02, 4.750E+02, 4.426E+02
 2.775E+03, 4.345E+02, 4.750E+02, 4.426E+02
 2.790E+03, 4.346E+02, 4.750E+02, 4.427E+02
 2.805E+03, 4.348E+02, 4.750E+02, 4.426E+02
 2.820E+03, 4.348E+02, 4.750E+02, 4.426E+02
 2.835E+03, 4.349E+02, 4.750E+02, 4.427E+02
 2.850E+03, 4.350E+02, 4.750E+02, 4.427E+02
 2.865E+03, 4.351E+02, 4.750E+02, 4.428E+02
 2.880E+03, 4.352E+02, 4.750E+02, 4.430E+02
 2.895E+03, 4.353E+02, 4.750E+02, 4.429E+02
 2.910E+03, 4.354E+02, 4.750E+02, 4.429E+02
 2.925E+03, 4.355E+02, 4.750E+02, 4.430E+02
 2.940E+03, 4.355E+02, 4.750E+02, 4.427E+02
 2.955E+03, 4.355E+02, 4.750E+02, 4.428E+02
 2.970E+03, 4.356E+02, 4.750E+02, 4.429E+02
 2.985E+03, 4.356E+02, 4.715E+02, 4.428E+02
 3.000E+03, 4.356E+02, 4.646E+02, 4.423E+02
 3.015E+03, 4.356E+02, 4.576E+02, 4.415E+02
 3.030E+03, 4.356E+02, 4.507E+02, 4.403E+02
 3.045E+03, 4.354E+02, 4.438E+02, 4.386E+02
 3.060E+03, 4.352E+02, 4.368E+02, 4.369E+02
 3.075E+03, 4.350E+02, 4.299E+02, 4.348E+02
 3.090E+03, 4.347E+02, 4.230E+02, 4.325E+02
 3.105E+03, 4.342E+02, 4.160E+02, 4.300E+02
 3.120E+03, 4.337E+02, 4.091E+02, 4.274E+02
 3.135E+03, 4.330E+02, 4.021E+02, 4.246E+02
 3.150E+03, 4.322E+02, 3.952E+02, 4.216E+02
 3.165E+03, 4.313E+02, 3.883E+02, 4.185E+02
 3.180E+03, 4.303E+02, 3.813E+02, 4.150E+02
 3.195E+03, 4.290E+02, 3.744E+02, 4.115E+02
 3.210E+03, 4.276E+02, 3.674E+02, 4.079E+02
 3.225E+03, 4.261E+02, 3.605E+02, 4.044E+02
 3.240E+03, 4.248E+02, 3.536E+02, 4.009E+02
 3.255E+03, 4.233E+02, 3.466E+02, 3.971E+02
 3.270E+03, 4.216E+02, 3.397E+02, 3.930E+02
 3.285E+03, 4.197E+02, 3.328E+02, 3.888E+02
 3.300E+03, 4.175E+02, 3.258E+02, 3.846E+02
 3.315E+03, 4.154E+02, 3.189E+02, 3.806E+02
 3.330E+03, 4.134E+02, 3.120E+02, 3.768E+02
 3.345E+03, 4.115E+02, 3.050E+02, 3.727E+02
 3.360E+03, 4.095E+02, 2.981E+02, 3.689E+02
 3.375E+03, 4.076E+02, 2.911E+02, 3.651E+02
 3.390E+03, 4.057E+02, 2.842E+02, 3.611E+02
 3.405E+03, 4.033E+02, 2.773E+02, 3.568E+02
 3.420E+03, 4.008E+02, 2.703E+02, 3.526E+02
 3.435E+03, 3.985E+02, 2.634E+02, 3.488E+02
 3.450E+03, 3.963E+02, 2.564E+02, 3.448E+02
 3.465E+03, 3.941E+02, 2.530E+02, 3.408E+02
 3.480E+03, 3.918E+02, 2.530E+02, 3.372E+02
 3.495E+03, 3.896E+02, 2.530E+02, 3.338E+02
 3.510E+03, 3.872E+02, 2.530E+02, 3.303E+02
 3.525E+03, 3.847E+02, 2.530E+02, 3.270E+02
 3.540E+03, 3.823E+02, 2.530E+02, 3.239E+02
 3.555E+03, 3.801E+02, 2.530E+02, 3.210E+02
 3.570E+03, 3.776E+02, 2.530E+02, 3.180E+02
 3.585E+03, 3.751E+02, 2.530E+02, 3.152E+02
 3.600E+03, 3.728E+02, 2.530E+02, 3.127E+02
