s,C,C
Time,"Cable Temp","Shroud Temp"
 0.000E+00, 2.000E+01, 2.000E+01
 1.502E+01, 2.014E+01, 6.666E+01
 3.001E+01, 2.207E+01, 1.588E+02
 4.504E+01, 2.772E+01, 2.511E+02
 6.003E+01, 3.892E+01, 3.219E+02
 7.502E+01, 5.165E+01, 3.234E+02
 9.003E+01, 6.160E+01, 3.196E+02
 1.050E+02, 6.970E+01, 3.158E+02
 1.200E+02, 7.655E+01, 3.120E+02
 1.350E+02, 8.242E+01, 3.082E+02
 1.500E+02, 8.750E+01, 3.052E+02
 1.650E+02, 9.230E+01, 3.050E+02
 1.800E+02, 9.697E+01, 3.050E+02
 1.950E+02, 1.013E+02, 3.050E+02
 2.100E+02, 1.056E+02, 3.050E+02
 2.250E+02, 1.097E+02, 3.050E+02
 2.400E+02, 1.137E+02, 3.050E+02
 2.550E+02, 1.177E+02, 3.050E+02
 2.700E+02, 1.214E+02, 3.050E+02
 2.850E+02, 1.251E+02, 3.050E+02
 3.000E+02, 1.288E+02, 3.050E+02
 3.150E+02, 1.321E+02, 3.050E+02
 3.300E+02, 1.355E+02, 3.050E+02
 3.450E+02, 1.390E+02, 3.050E+02
 3.600E+02, 1.423E+02, 3.050E+02
 3.750E+02, 1.453E+02, 3.050E+02
 3.900E+02, 1.482E+02, 3.050E+02
 4.050E+02, 1.512E+02, 3.050E+02
 4.200E+02, 1.542E+02, 3.050E+02
 4.350E+02, 1.571E+02, 3.050E+02
 4.500E+02, 1.595E+02, 3.050E+02
 4.650E+02, 1.621E+02, 3.050E+02
 4.800E+02, 1.647E+02, 3.050E+02
 4.950E+02, 1.673E+02, 3.050E+02
 5.100E+02, 1.694E+02, 3.050E+02
 5.250E+02, 1.717E+02, 3.050E+02
 5.400E+02, 1.742E+02, 3.050E+02
 5.550E+02, 1.762E+02, 3.050E+02
 5.700E+02, 1.784E+02, 3.050E+02
 5.850E+02, 1.804E+02, 3.050E+02
 6.000E+02, 1.824E+02, 3.050E+02
 6.150E+02, 1.845E+02, 3.050E+02
 6.300E+02, 1.864E+02, 3.050E+02
 6.450E+02, 1.884E+02, 3.050E+02
 6.600E+02, 1.902E+02, 3.050E+02
 6.750E+02, 1.920E+02, 3.050E+02
 6.900E+02, 1.935E+02, 3.050E+02
 7.050E+02, 1.951E+02, 3.050E+02
 7.200E+02, 1.966E+02, 3.050E+02
 7.350E+02, 1.984E+02, 3.050E+02
 7.500E+02, 2.001E+02, 3.050E+02
 7.650E+02, 2.017E+02, 3.050E+02
 7.800E+02, 2.031E+02, 3.050E+02
 7.950E+02, 2.044E+02, 3.050E+02
 8.100E+02, 2.058E+02, 3.050E+02
 8.250E+02, 2.072E+02, 3.050E+02
 8.400E+02, 2.085E+02, 3.050E+02
 8.550E+02, 2.100E+02, 3.050E+02
 8.700E+02, 2.113E+02, 3.050E+02
 8.850E+02, 2.125E+02, 3.050E+02
 9.000E+02, 2.137E+02, 3.050E+02
 9.150E+02, 2.146E+02, 3.050E+02
 9.300E+02, 2.157E+02, 3.050E+02
 9.450E+02, 2.169E+02, 3.050E+02
 9.600E+02, 2.179E+02, 3.050E+02
 9.750E+02, 2.186E+02, 3.050E+02
 9.900E+02, 2.194E+02, 3.050E+02
 1.005E+03, 2.202E+02, 3.050E+02
 1.020E+03, 2.213E+02, 3.050E+02
 1.035E+03, 2.218E+02, 3.050E+02
 1.050E+03, 2.226E+02, 3.050E+02
 1.065E+03, 2.234E+02, 3.050E+02
 1.080E+03, 2.240E+02, 3.050E+02
 1.095E+03, 2.247E+02, 3.050E+02
 1.110E+03, 2.254E+02, 3.050E+02
 1.125E+03, 2.261E+02, 3.050E+02
 1.140E+03, 2.269E+02, 3.050E+02
 1.155E+03, 2.277E+02, 3.050E+02
 1.170E+03, 2.282E+02, 3.050E+02
 1.185E+03, 2.287E+02, 3.050E+02
 1.200E+03, 2.293E+02, 3.050E+02
 1.215E+03, 2.301E+02, 3.050E+02
 1.230E+03, 2.307E+02, 3.050E+02
 1.245E+03, 2.313E+02, 3.050E+02
 1.260E+03, 2.322E+02, 3.050E+02
 1.275E+03, 2.326E+02, 3.050E+02
 1.290E+03, 2.332E+02, 3.050E+02
 1.305E+03, 2.338E+02, 3.050E+02
 1.320E+03, 2.342E+02, 3.050E+02
 1.335E+03, 2.342E+02, 3.050E+02
 1.350E+03, 2.346E+02, 3.050E+02
 1.365E+03, 2.349E+02, 3.050E+02
 1.380E+03, 2.352E+02, 3.050E+02
 1.395E+03, 2.354E+02, 3.050E+02
 1.410E+03, 2.359E+02, 3.050E+02
 1.425E+03, 2.360E+02, 3.050E+02
 1.440E+03, 2.365E+02, 3.050E+02
 1.455E+03, 2.370E+02, 3.050E+02
 1.470E+03, 2.373E+02, 3.050E+02
 1.485E+03, 2.375E+02, 3.050E+02
 1.500E+03, 2.377E+02, 3.050E+02
 1.515E+03, 2.382E+02, 3.050E+02
 1.530E+03, 2.387E+02, 3.050E+02
 1.545E+03, 2.390E+02, 3.050E+02
 1.560E+03, 2.394E+02, 3.050E+02
 1.575E+03, 2.397E+02, 3.050E+02
 1.590E+03, 2.397E+02, 3.050E+02
 1.605E+03, 2.398E+02, 3.050E+02
 1.620E+03, 2.404E+02, 3.050E+02
 1.635E+03, 2.408E+02, 3.050E+02
 1.650E+03, 2.414E+02, 3.050E+02
 1.665E+03, 2.414E+02, 3.050E+02
 1.680E+03, 2.415E+02, 3.050E+02
 1.695E+03, 2.415E+02, 3.050E+02
 1.710E+03, 2.418E+02, 3.050E+02
 1.725E+03, 2.420E+02, 3.050E+02
 1.740E+03, 2.422E+02, 3.050E+02
 1.755E+03, 2.424E+02, 3.050E+02
 1.770E+03, 2.422E+02, 3.050E+02
 1.785E+03, 2.423E+02, 3.050E+02
 1.800E+03, 2.426E+02, 3.050E+02
 1.815E+03, 2.427E+02, 3.050E+02
 1.830E+03, 2.427E+02, 3.050E+02
 1.845E+03, 2.431E+02, 3.050E+02
 1.860E+03, 2.435E+02, 3.050E+02
 1.875E+03, 2.437E+02, 3.050E+02
 1.890E+03, 2.438E+02, 3.050E+02
 1.905E+03, 2.438E+02, 3.050E+02
 1.920E+03, 2.441E+02, 3.050E+02
 1.935E+03, 2.441E+02, 3.050E+02
 1.950E+03, 2.441E+02, 3.050E+02
 1.965E+03, 2.443E+02, 3.050E+02
 1.980E+03, 2.444E+02, 3.050E+02
 1.995E+03, 2.444E+02, 3.050E+02
 2.010E+03, 2.447E+02, 3.050E+02
 2.025E+03, 2.449E+02, 3.050E+02
 2.040E+03, 2.448E+02, 3.050E+02
 2.055E+03, 2.447E+02, 3.050E+02
 2.070E+03, 2.445E+02, 3.050E+02
 2.085E+03, 2.446E+02, 3.050E+02
 2.100E+03, 2.447E+02, 3.040E+02
 2.115E+03, 2.446E+02, 2.996E+02
 2.130E+03, 2.440E+02, 2.949E+02
 2.145E+03, 2.433E+02, 2.903E+02
 2.160E+03, 2.428E+02, 2.856E+02
 2.175E+03, 2.419E+02, 2.810E+02
 2.190E+03, 2.406E+02, 2.763E+02
 2.205E+03, 2.393E+02, 2.717E+02
 2.220E+03, 2.381E+02, 2.670E+02
 2.235E+03, 2.366E+02, 2.624E+02
 2.250E+03, 2.347E+02, 2.577E+02
 2.265E+03, 2.327E+02, 2.531E+02
 2.280E+03, 2.310E+02, 2.485E+02
 2.295E+03, 2.293E+02, 2.438E+02
 2.310E+03, 2.276E+02, 2.392E+02
 2.325E+03, 2.257E+02, 2.348E+02
 2.340E+03, 2.237E+02, 2.338E+02
 2.355E+03, 2.223E+02, 2.338E+02
 2.370E+03, 2.207E+02, 2.338E+02
 2.385E+03, 2.195E+02, 2.338E+02
 2.400E+03, 2.184E+02, 2.338E+02
