s,C,C
Time,"Cable Temp","Shroud Temp"
 0.000E+00, 2.400E+01, 2.400E+01
 1.509E+01, 2.401E+01, 7.366E+01
 3.007E+01, 2.437E+01, 1.713E+02
 4.504E+01, 2.622E+01, 2.689E+02
 6.002E+01, 3.093E+01, 3.664E+02
 7.502E+01, 4.026E+01, 4.585E+02
 9.001E+01, 5.564E+01, 4.800E+02
 1.050E+02, 7.420E+01, 4.800E+02
 1.200E+02, 9.245E+01, 4.800E+02
 1.350E+02, 1.094E+02, 4.800E+02
 1.500E+02, 1.249E+02, 4.800E+02
 1.650E+02, 1.392E+02, 4.800E+02
 1.800E+02, 1.524E+02, 4.800E+02
 1.950E+02, 1.646E+02, 4.800E+02
 2.100E+02, 1.760E+02, 4.800E+02
 2.250E+02, 1.866E+02, 4.800E+02
 2.400E+02, 1.967E+02, 4.800E+02
 2.550E+02, 2.061E+02, 4.800E+02
 2.700E+02, 2.150E+02, 4.800E+02
 2.850E+02, 2.234E+02, 4.800E+02
 3.000E+02, 2.314E+02, 4.800E+02
 3.150E+02, 2.390E+02, 4.800E+02
 3.300E+02, 2.462E+02, 4.800E+02
 3.450E+02, 2.532E+02, 4.800E+02
 3.600E+02, 2.601E+02, 4.800E+02
 3.750E+02, 2.666E+02, 4.800E+02
 3.900E+02, 2.730E+02, 4.800E+02
 4.050E+02, 2.791E+02, 4.800E+02
 4.200E+02, 2.848E+02, 4.800E+02
 4.350E+02, 2.901E+02, 4.800E+02
 4.500E+02, 2.953E+02, 4.800E+02
 4.650E+02, 3.005E+02, 4.800E+02
 4.800E+02, 3.055E+02, 4.800E+02
 4.950E+02, 3.102E+02, 4.800E+02
 5.100E+02, 3.147E+02, 4.800E+02
 5.250E+02, 3.190E+02, 4.800E+02
 5.400E+02, 3.231E+02, 4.800E+02
 5.550E+02, 3.271E+02, 4.800E+02
 5.700E+02, 3.310E+02, 4.800E+02
 5.850E+02, 3.347E+02, 4.800E+02
 6.000E+02, 3.384E+02, 4.800E+02
 6.150E+02, 3.420E+02, 4.800E+02
 6.300E+02, 3.454E+02, 4.800E+02
 6.450E+02, 3.486E+02, 4.800E+02
 6.600E+02, 3.516E+02, 4.800E+02
 6.750E+02, 3.547E+02, 4.800E+02
 6.900E+02, 3.576E+02, 4.800E+02
 7.050E+02, 3.603E+02, 4.800E+02
 7.200E+02, 3.630E+02, 4.800E+02
 7.350E+02, 3.653E+02, 4.800E+02
 7.500E+02, 3.677E+02, 4.800E+02
 7.650E+02, 3.699E+02, 4.800E+02
 7.800E+02, 3.722E+02, 4.800E+02
 7.950E+02, 3.743E+02, 4.772E+02
 8.100E+02, 3.762E+02, 4.715E+02
 8.250E+02, 3.777E+02, 4.659E+02
 8.400E+02, 3.785E+02, 4.602E+02
 8.550E+02, 3.790E+02, 4.546E+02
 8.700E+02, 3.791E+02, 4.489E+02
 8.850E+02, 3.788E+02, 4.433E+02
 9.000E+02, 3.783E+02, 4.376E+02
 9.150E+02, 3.779E+02, 4.320E+02
 9.300E+02, 3.771E+02, 4.263E+02
 9.450E+02, 3.760E+02, 4.206E+02
 9.600E+02, 3.749E+02, 4.150E+02
 9.750E+02, 3.732E+02, 4.094E+02
 9.900E+02, 3.715E+02, 4.037E+02
 1.005E+03, 3.698E+02, 3.981E+02
 1.020E+03, 3.680E+02, 3.924E+02
 1.035E+03, 3.662E+02, 3.867E+02
 1.050E+03, 3.642E+02, 3.811E+02
 1.065E+03, 3.621E+02, 3.755E+02
 1.080E+03, 3.601E+02, 3.698E+02
 1.095E+03, 3.579E+02, 3.642E+02
 1.110E+03, 3.555E+02, 3.585E+02
 1.125E+03, 3.530E+02, 3.528E+02
 1.140E+03, 3.505E+02, 3.472E+02
 1.155E+03, 3.480E+02, 3.415E+02
 1.170E+03, 3.454E+02, 3.359E+02
 1.185E+03, 3.428E+02, 3.302E+02
 1.200E+03, 3.401E+02, 3.246E+02
 1.215E+03, 3.372E+02, 3.189E+02
 1.230E+03, 3.343E+02, 3.133E+02
 1.245E+03, 3.315E+02, 3.077E+02
 1.260E+03, 3.285E+02, 3.032E+02
 1.275E+03, 3.256E+02, 2.990E+02
 1.290E+03, 3.226E+02, 2.949E+02
 1.305E+03, 3.197E+02, 2.907E+02
 1.320E+03, 3.168E+02, 2.865E+02
 1.335E+03, 3.142E+02, 2.823E+02
 1.350E+03, 3.114E+02, 2.781E+02
 1.365E+03, 3.086E+02, 2.740E+02
 1.380E+03, 3.058E+02, 2.698E+02
 1.395E+03, 3.032E+02, 2.656E+02
 1.410E+03, 3.004E+02, 2.614E+02
 1.425E+03, 2.975E+02, 2.572E+02
 1.440E+03, 2.947E+02, 2.531E+02
 1.455E+03, 2.918E+02, 2.489E+02
 1.470E+03, 2.890E+02, 2.447E+02
 1.485E+03, 2.861E+02, 2.405E+02
 1.500E+03, 2.833E+02, 2.363E+02
 1.515E+03, 2.805E+02, 2.322E+02
 1.530E+03, 2.777E+02, 2.280E+02
 1.545E+03, 2.749E+02, 2.238E+02
 1.560E+03, 2.720E+02, 2.196E+02
 1.575E+03, 2.691E+02, 2.154E+02
 1.590E+03, 2.662E+02, 2.113E+02
 1.605E+03, 2.633E+02, 2.073E+02
 1.620E+03, 2.605E+02, 2.064E+02
 1.635E+03, 2.577E+02, 2.064E+02
 1.650E+03, 2.550E+02, 2.064E+02
 1.665E+03, 2.525E+02, 2.064E+02
 1.680E+03, 2.503E+02, 2.064E+02
 1.695E+03, 2.481E+02, 2.064E+02
 1.710E+03, 2.460E+02, 2.064E+02
 1.725E+03, 2.441E+02, 2.064E+02
 1.740E+03, 2.422E+02, 2.064E+02
 1.755E+03, 2.404E+02, 2.064E+02
 1.770E+03, 2.385E+02, 2.064E+02
 1.785E+03, 2.366E+02, 2.064E+02
 1.800E+03, 2.347E+02, 2.064E+02
