s,C,C
Time,"Cable Temp","Shroud Temp"
 0.000E+00, 2.800E+01, 2.800E+01
 1.507E+01, 2.801E+01, 6.203E+01
 3.004E+01, 2.833E+01, 1.290E+02
 4.503E+01, 2.971E+01, 1.959E+02
 6.001E+01, 3.293E+01, 2.629E+02
 7.504E+01, 3.863E+01, 3.299E+02
 9.001E+01, 4.774E+01, 3.970E+02
 1.050E+02, 6.132E+01, 4.602E+02
 1.200E+02, 7.983E+01, 4.750E+02
 1.350E+02, 9.987E+01, 4.750E+02
 1.500E+02, 1.188E+02, 4.750E+02
 1.650E+02, 1.361E+02, 4.750E+02
 1.800E+02, 1.521E+02, 4.750E+02
 1.950E+02, 1.668E+02, 4.750E+02
 2.100E+02, 1.805E+02, 4.750E+02
 2.250E+02, 1.932E+02, 4.750E+02
 2.400E+02, 2.053E+02, 4.750E+02
 2.550E+02, 2.166E+02, 4.750E+02
 2.700E+02, 2.273E+02, 4.750E+02
 2.850E+02, 2.375E+02, 4.750E+02
 3.000E+02, 2.471E+02, 4.750E+02
 3.150E+02, 2.563E+02, 4.750E+02
 3.300E+02, 2.651E+02, 4.750E+02
 3.450E+02, 2.735E+02, 4.750E+02
 3.600E+02, 2.816E+02, 4.750E+02
 3.750E+02, 2.892E+02, 4.750E+02
 3.900E+02, 2.964E+02, 4.750E+02
 4.050E+02, 3.034E+02, 4.750E+02
 4.200E+02, 3.100E+02, 4.750E+02
 4.350E+02, 3.164E+02, 4.750E+02
 4.500E+02, 3.225E+02, 4.750E+02
 4.650E+02, 3.282E+02, 4.750E+02
 4.800E+02, 3.337E+02, 4.750E+02
 4.950E+02, 3.388E+02, 4.750E+02
 5.100E+02, 3.438E+02, 4.750E+02
 5.250E+02, 3.487E+02, 4.750E+02
 5.400E+02, 3.534E+02, 4.750E+02
 5.550E+02, 3.578E+02, 4.750E+02
 5.700E+02, 3.620E+02, 4.750E+02
 5.850E+02, 3.661E+02, 4.750E+02
 6.000E+02, 3.699E+02, 4.750E+02
 6.150E+02, 3.735E+02, 4.750E+02
 6.300E+02, 3.770E+02, 4.750E+02
 6.450E+02, 3.803E+02, 4.750E+02
 6.600E+02, 3.835E+02, 4.750E+02
 6.750E+02, 3.866E+02, 4.750E+02
 6.900E+02, 3.896E+02, 4.750E+02
 7.050E+02, 3.923E+02, 4.750E+02
 7.200E+02, 3.948E+02, 4.750E+02
 7.350E+02, 3.973E+02, 4.750E+02
 7.500E+02, 3.997E+02, 4.750E+02
 7.650E+02, 4.020E+02, 4.750E+02
 7.800E+02, 4.042E+02, 4.750E+02
 7.950E+02, 4.063E+02, 4.750E+02
 8.100E+02, 4.083E+02, 4.750E+02
 8.250E+02, 4.102E+02, 4.750E+02
 8.400E+02, 4.119E+02, 4.750E+02
 8.550E+02, 4.136E+02, 4.750E+02
 8.700E+02, 4.153E+02, 4.750E+02
 8.850E+02, 4.169E+02, 4.750E+02
 9.000E+02, 4.184E+02, 4.750E+02
 9.150E+02, 4.198E+02, 4.750E+02
 9.300E+02, 4.211E+02, 4.750E+02
 9.450E+02, 4.223E+02, 4.750E+02
 9.600E+02, 4.235E+02, 4.750E+02
 9.750E+02, 4.247E+02, 4.750E+02
 9.900E+02, 4.258E+02, 4.750E+02
 1.005E+03, 4.269E+02, 4.750E+02
 1.020E+03, 4.278E+02, 4.750E+02
 1.035E+03, 4.288E+02, 4.750E+02
 1.050E+03, 4.297E+02, 4.750E+02
 1.065E+03, 4.304E+02, 4.750E+02
 1.080E+03, 4.312E+02, 4.750E+02
 1.095E+03, 4.319E+02, 4.750E+02
 1.110E+03, 4.326E+02, 4.750E+02
 1.125E+03, 4.334E+02, 4.750E+02
 1.140E+03, 4.341E+02, 4.750E+02
 1.155E+03, 4.347E+02, 4.750E+02
 1.170E+03, 4.352E+02, 4.750E+02
 1.185E+03, 4.358E+02, 4.750E+02
 1.200E+03, 4.364E+02, 4.750E+02
 1.215E+03, 4.369E+02, 4.750E+02
 1.230E+03, 4.373E+02, 4.750E+02
 1.245E+03, 4.377E+02, 4.750E+02
 1.260E+03, 4.382E+02, 4.750E+02
 1.275E+03, 4.385E+02, 4.750E+02
 1.290E+03, 4.389E+02, 4.750E+02
 1.305E+03, 4.394E+02, 4.746E+02
 1.320E+03, 4.397E+02, 4.694E+02
 1.335E+03, 4.396E+02, 4.627E+02
 1.350E+03, 4.390E+02, 4.560E+02
 1.365E+03, 4.379E+02, 4.493E+02
 1.380E+03, 4.365E+02, 4.426E+02
 1.395E+03, 4.346E+02, 4.359E+02
 1.410E+03, 4.325E+02, 4.292E+02
 1.425E+03, 4.303E+02, 4.225E+02
 1.440E+03, 4.279E+02, 4.158E+02
 1.455E+03, 4.252E+02, 4.091E+02
 1.470E+03, 4.224E+02, 4.023E+02
 1.485E+03, 4.195E+02, 3.956E+02
 1.500E+03, 4.163E+02, 3.889E+02
 1.515E+03, 4.129E+02, 3.822E+02
 1.530E+03, 4.095E+02, 3.755E+02
 1.545E+03, 4.061E+02, 3.688E+02
 1.560E+03, 4.026E+02, 3.621E+02
 1.575E+03, 3.991E+02, 3.554E+02
 1.590E+03, 3.954E+02, 3.487E+02
 1.605E+03, 3.917E+02, 3.420E+02
 1.620E+03, 3.878E+02, 3.353E+02
 1.635E+03, 3.840E+02, 3.286E+02
 1.650E+03, 3.802E+02, 3.219E+02
 1.665E+03, 3.764E+02, 3.152E+02
 1.680E+03, 3.725E+02, 3.085E+02
 1.695E+03, 3.686E+02, 3.018E+02
 1.710E+03, 3.647E+02, 2.966E+02
 1.725E+03, 3.608E+02, 2.962E+02
 1.740E+03, 3.572E+02, 2.962E+02
 1.755E+03, 3.537E+02, 2.962E+02
 1.770E+03, 3.504E+02, 2.962E+02
 1.785E+03, 3.474E+02, 2.962E+02
 1.800E+03, 3.446E+02, 2.962E+02
