s,C,C,C
Time,"Cable Temp","Shroud Temp","Conduit"
 0.000E+00, 3.100E+01, 3.100E+01, 3.100E+01
 1.506E+01, 3.100E+01, 7.170E+01, 3.106E+01
 3.005E+01, 3.103E+01, 1.518E+02, 3.170E+01
 4.503E+01, 3.109E+01, 2.319E+02, 3.353E+01
 6.005E+01, 3.126E+01, 3.074E+02, 3.724E+01
 7.502E+01, 3.171E+01, 3.250E+02, 4.246E+01
 9.000E+01, 3.225E+01, 3.250E+02, 4.777E+01
 1.050E+02, 3.278E+01, 3.250E+02, 5.300E+01
 1.200E+02, 3.330E+01, 3.250E+02, 5.812E+01
 1.350E+02, 3.408E+01, 3.250E+02, 6.316E+01
 1.500E+02, 3.515E+01, 3.250E+02, 6.815E+01
 1.651E+02, 3.634E+01, 3.250E+02, 7.309E+01
 1.800E+02, 3.716E+01, 3.250E+02, 7.792E+01
 1.950E+02, 3.779E+01, 3.250E+02, 8.267E+01
 2.100E+02, 3.858E+01, 3.250E+02, 8.736E+01
 2.250E+02, 3.952E+01, 3.250E+02, 9.196E+01
 2.400E+02, 4.073E+01, 3.250E+02, 9.648E+01
 2.550E+02, 4.220E+01, 3.250E+02, 1.009E+02
 2.700E+02, 4.357E+01, 3.250E+02, 1.053E+02
 2.850E+02, 4.473E+01, 3.250E+02, 1.096E+02
 3.000E+02, 4.621E+01, 3.250E+02, 1.138E+02
 3.150E+02, 4.768E+01, 3.250E+02, 1.179E+02
 3.300E+02, 4.912E+01, 3.250E+02, 1.220E+02
 3.450E+02, 5.082E+01, 3.250E+02, 1.260E+02
 3.600E+02, 5.236E+01, 3.250E+02, 1.298E+02
 3.750E+02, 5.394E+01, 3.250E+02, 1.337E+02
 3.900E+02, 5.568E+01, 3.250E+02, 1.374E+02
 4.050E+02, 5.719E+01, 3.250E+02, 1.411E+02
 4.200E+02, 5.896E+01, 3.250E+02, 1.447E+02
 4.350E+02, 6.091E+01, 3.250E+02, 1.482E+02
 4.500E+02, 6.264E+01, 3.250E+02, 1.517E+02
 4.650E+02, 6.439E+01, 3.250E+02, 1.551E+02
 4.800E+02, 6.629E+01, 3.250E+02, 1.585E+02
 4.950E+02, 6.827E+01, 3.250E+02, 1.617E+02
 5.100E+02, 7.033E+01, 3.250E+02, 1.650E+02
 5.250E+02, 7.249E+01, 3.250E+02, 1.681E+02
 5.400E+02, 7.477E+01, 3.250E+02, 1.711E+02
 5.550E+02, 7.712E+01, 3.250E+02, 1.741E+02
 5.700E+02, 7.936E+01, 3.250E+02, 1.771E+02
 5.850E+02, 8.180E+01, 3.250E+02, 1.800E+02
 6.001E+02, 8.421E+01, 3.250E+02, 1.828E+02
 6.150E+02, 8.633E+01, 3.250E+02, 1.856E+02
 6.300E+02, 8.877E+01, 3.250E+02, 1.883E+02
 6.450E+02, 9.113E+01, 3.250E+02, 1.910E+02
 6.600E+02, 9.384E+01, 3.250E+02, 1.935E+02
 6.750E+02, 9.623E+01, 3.250E+02, 1.961E+02
 6.900E+02, 9.873E+01, 3.250E+02, 1.985E+02
 7.050E+02, 1.011E+02, 3.250E+02, 2.010E+02
 7.201E+02, 1.034E+02, 3.250E+02, 2.034E+02
 7.350E+02, 1.059E+02, 3.250E+02, 2.057E+02
 7.500E+02, 1.085E+02, 3.250E+02, 2.080E+02
 7.650E+02, 1.110E+02, 3.250E+02, 2.103E+02
 7.800E+02, 1.137E+02, 3.250E+02, 2.125E+02
 7.951E+02, 1.163E+02, 3.250E+02, 2.146E+02
 8.100E+02, 1.188E+02, 3.250E+02, 2.167E+02
 8.250E+02, 1.213E+02, 3.250E+02, 2.188E+02
 8.401E+02, 1.238E+02, 3.250E+02, 2.208E+02
 8.550E+02, 1.265E+02, 3.250E+02, 2.227E+02
 8.701E+02, 1.291E+02, 3.250E+02, 2.246E+02
 8.850E+02, 1.318E+02, 3.250E+02, 2.264E+02
 9.000E+02, 1.342E+02, 3.250E+02, 2.282E+02
 9.150E+02, 1.369E+02, 3.250E+02, 2.299E+02
 9.300E+02, 1.395E+02, 3.250E+02, 2.315E+02
 9.451E+02, 1.421E+02, 3.250E+02, 2.331E+02
 9.600E+02, 1.445E+02, 3.250E+02, 2.347E+02
 9.751E+02, 1.470E+02, 3.250E+02, 2.362E+02
 9.900E+02, 1.495E+02, 3.250E+02, 2.377E+02
 1.005E+03, 1.522E+02, 3.250E+02, 2.392E+02
 1.020E+03, 1.546E+02, 3.250E+02, 2.406E+02
 1.035E+03, 1.571E+02, 3.250E+02, 2.420E+02
 1.050E+03, 1.595E+02, 3.250E+02, 2.433E+02
 1.065E+03, 1.618E+02, 3.250E+02, 2.446E+02
 1.080E+03, 1.642E+02, 3.250E+02, 2.459E+02
 1.095E+03, 1.665E+02, 3.250E+02, 2.471E+02
 1.110E+03, 1.688E+02, 3.250E+02, 2.483E+02
 1.125E+03, 1.712E+02, 3.250E+02, 2.495E+02
 1.140E+03, 1.735E+02, 3.250E+02, 2.507E+02
 1.155E+03, 1.758E+02, 3.250E+02, 2.519E+02
 1.170E+03, 1.781E+02, 3.250E+02, 2.530E+02
 1.185E+03, 1.804E+02, 3.250E+02, 2.542E+02
 1.200E+03, 1.826E+02, 3.250E+02, 2.552E+02
 1.215E+03, 1.848E+02, 3.250E+02, 2.563E+02
 1.230E+03, 1.870E+02, 3.250E+02, 2.572E+02
 1.245E+03, 1.891E+02, 3.250E+02, 2.582E+02
 1.260E+03, 1.912E+02, 3.250E+02, 2.590E+02
 1.275E+03, 1.932E+02, 3.250E+02, 2.600E+02
 1.290E+03, 1.953E+02, 3.250E+02, 2.608E+02
 1.305E+03, 1.972E+02, 3.250E+02, 2.616E+02
 1.320E+03, 1.991E+02, 3.250E+02, 2.624E+02
 1.335E+03, 2.010E+02, 3.250E+02, 2.631E+02
 1.350E+03, 2.028E+02, 3.250E+02, 2.639E+02
 1.365E+03, 2.047E+02, 3.250E+02, 2.646E+02
 1.380E+03, 2.064E+02, 3.250E+02, 2.653E+02
 1.395E+03, 2.082E+02, 3.250E+02, 2.660E+02
 1.410E+03, 2.101E+02, 3.250E+02, 2.668E+02
 1.425E+03, 2.118E+02, 3.250E+02, 2.675E+02
 1.440E+03, 2.136E+02, 3.250E+02, 2.682E+02
 1.455E+03, 2.154E+02, 3.250E+02, 2.689E+02
 1.470E+03, 2.169E+02, 3.250E+02, 2.695E+02
 1.485E+03, 2.185E+02, 3.250E+02, 2.701E+02
 1.500E+03, 2.202E+02, 3.250E+02, 2.708E+02
 1.515E+03, 2.218E+02, 3.250E+02, 2.714E+02
 1.530E+03, 2.231E+02, 3.250E+02, 2.719E+02
 1.545E+03, 2.247E+02, 3.250E+02, 2.725E+02
 1.560E+03, 2.259E+02, 3.250E+02, 2.730E+02
 1.575E+03, 2.274E+02, 3.250E+02, 2.735E+02
 1.590E+03, 2.289E+02, 3.250E+02, 2.740E+02
 1.605E+03, 2.305E+02, 3.250E+02, 2.746E+02
 1.620E+03, 2.318E+02, 3.250E+02, 2.752E+02
 1.635E+03, 2.331E+02, 3.250E+02, 2.757E+02
 1.650E+03, 2.346E+02, 3.250E+02, 2.762E+02
 1.665E+03, 2.358E+02, 3.250E+02, 2.767E+02
 1.680E+03, 2.372E+02, 3.250E+02, 2.772E+02
 1.695E+03, 2.386E+02, 3.250E+02, 2.778E+02
 1.710E+03, 2.399E+02, 3.250E+02, 2.783E+02
 1.725E+03, 2.411E+02, 3.250E+02, 2.787E+02
 1.740E+03, 2.423E+02, 3.250E+02, 2.791E+02
 1.755E+03, 2.435E+02, 3.250E+02, 2.796E+02
 1.770E+03, 2.447E+02, 3.250E+02, 2.800E+02
 1.785E+03, 2.459E+02, 3.250E+02, 2.805E+02
 1.800E+03, 2.469E+02, 3.250E+02, 2.809E+02
 1.815E+03, 2.479E+02, 3.250E+02, 2.812E+02
 1.830E+03, 2.489E+02, 3.250E+02, 2.816E+02
 1.845E+03, 2.499E+02, 3.250E+02, 2.819E+02
 1.860E+03, 2.509E+02, 3.250E+02, 2.822E+02
 1.875E+03, 2.516E+02, 3.250E+02, 2.825E+02
 1.890E+03, 2.525E+02, 3.250E+02, 2.828E+02
 1.905E+03, 2.532E+02, 3.250E+02, 2.831E+02
 1.920E+03, 2.541E+02, 3.250E+02, 2.833E+02
 1.935E+03, 2.550E+02, 3.250E+02, 2.836E+02
 1.950E+03, 2.560E+02, 3.250E+02, 2.839E+02
 1.965E+03, 2.570E+02, 3.250E+02, 2.842E+02
 1.980E+03, 2.579E+02, 3.250E+02, 2.845E+02
 1.995E+03, 2.584E+02, 3.250E+02, 2.847E+02
 2.010E+03, 2.587E+02, 3.250E+02, 2.848E+02
 2.025E+03, 2.597E+02, 3.250E+02, 2.850E+02
 2.040E+03, 2.603E+02, 3.250E+02, 2.852E+02
 2.055E+03, 2.605E+02, 3.250E+02, 2.853E+02
 2.070E+03, 2.614E+02, 3.250E+02, 2.855E+02
 2.085E+03, 2.620E+02, 3.250E+02, 2.857E+02
 2.100E+03, 2.627E+02, 3.250E+02, 2.859E+02
 2.115E+03, 2.635E+02, 3.250E+02, 2.861E+02
 2.130E+03, 2.642E+02, 3.250E+02, 2.863E+02
 2.145E+03, 2.648E+02, 3.250E+02, 2.865E+02
 2.160E+03, 2.655E+02, 3.250E+02, 2.868E+02
 2.175E+03, 2.661E+02, 3.250E+02, 2.870E+02
 2.190E+03, 2.668E+02, 3.250E+02, 2.873E+02
 2.205E+03, 2.675E+02, 3.250E+02, 2.875E+02
 2.220E+03, 2.677E+02, 3.250E+02, 2.876E+02
 2.235E+03, 2.683E+02, 3.250E+02, 2.878E+02
 2.250E+03, 2.690E+02, 3.250E+02, 2.880E+02
 2.265E+03, 2.690E+02, 3.250E+02, 2.880E+02
 2.280E+03, 2.694E+02, 3.250E+02, 2.882E+02
 2.295E+03, 2.696E+02, 3.250E+02, 2.882E+02
 2.310E+03, 2.701E+02, 3.250E+02, 2.883E+02
 2.325E+03, 2.707E+02, 3.250E+02, 2.885E+02
 2.340E+03, 2.712E+02, 3.250E+02, 2.886E+02
 2.355E+03, 2.717E+02, 3.250E+02, 2.888E+02
 2.370E+03, 2.717E+02, 3.250E+02, 2.888E+02
 2.385E+03, 2.722E+02, 3.250E+02, 2.890E+02
 2.400E+03, 2.730E+02, 3.250E+02, 2.892E+02
 2.415E+03, 2.734E+02, 3.250E+02, 2.893E+02
 2.430E+03, 2.738E+02, 3.250E+02, 2.894E+02
 2.445E+03, 2.742E+02, 3.250E+02, 2.895E+02
 2.460E+03, 2.747E+02, 3.250E+02, 2.897E+02
 2.475E+03, 2.752E+02, 3.250E+02, 2.899E+02
 2.490E+03, 2.756E+02, 3.250E+02, 2.901E+02
 2.505E+03, 2.761E+02, 3.250E+02, 2.902E+02
 2.520E+03, 2.765E+02, 3.250E+02, 2.904E+02
 2.535E+03, 2.770E+02, 3.250E+02, 2.906E+02
 2.550E+03, 2.774E+02, 3.250E+02, 2.908E+02
 2.565E+03, 2.777E+02, 3.250E+02, 2.909E+02
 2.580E+03, 2.778E+02, 3.250E+02, 2.910E+02
 2.595E+03, 2.780E+02, 3.250E+02, 2.911E+02
 2.610E+03, 2.782E+02, 3.250E+02, 2.912E+02
 2.625E+03, 2.786E+02, 3.250E+02, 2.913E+02
 2.640E+03, 2.789E+02, 3.250E+02, 2.914E+02
 2.655E+03, 2.794E+02, 3.250E+02, 2.916E+02
 2.670E+03, 2.792E+02, 3.250E+02, 2.915E+02
 2.685E+03, 2.790E+02, 3.250E+02, 2.915E+02
 2.700E+03, 2.792E+02, 3.250E+02, 2.915E+02
 2.715E+03, 2.798E+02, 3.250E+02, 2.917E+02
 2.730E+03, 2.799E+02, 3.250E+02, 2.917E+02
 2.745E+03, 2.802E+02, 3.250E+02, 2.918E+02
 2.760E+03, 2.807E+02, 3.250E+02, 2.919E+02
 2.775E+03, 2.811E+02, 3.250E+02, 2.921E+02
 2.790E+03, 2.815E+02, 3.250E+02, 2.922E+02
 2.805E+03, 2.816E+02, 3.250E+02, 2.922E+02
 2.820E+03, 2.818E+02, 3.250E+02, 2.923E+02
 2.835E+03, 2.821E+02, 3.250E+02, 2.924E+02
 2.850E+03, 2.824E+02, 3.250E+02, 2.925E+02
 2.865E+03, 2.825E+02, 3.250E+02, 2.926E+02
 2.880E+03, 2.825E+02, 3.250E+02, 2.926E+02
 2.895E+03, 2.830E+02, 3.250E+02, 2.927E+02
 2.910E+03, 2.832E+02, 3.250E+02, 2.928E+02
 2.925E+03, 2.834E+02, 3.250E+02, 2.929E+02
 2.940E+03, 2.837E+02, 3.250E+02, 2.930E+02
 2.955E+03, 2.840E+02, 3.250E+02, 2.932E+02
 2.970E+03, 2.842E+02, 3.250E+02, 2.932E+02
 2.985E+03, 2.841E+02, 3.250E+02, 2.932E+02
 3.000E+03, 2.842E+02, 3.250E+02, 2.932E+02
 3.015E+03, 2.841E+02, 3.250E+02, 2.932E+02
 3.030E+03, 2.840E+02, 3.250E+02, 2.932E+02
 3.045E+03, 2.841E+02, 3.250E+02, 2.932E+02
 3.060E+03, 2.844E+02, 3.250E+02, 2.932E+02
 3.075E+03, 2.844E+02, 3.250E+02, 2.932E+02
 3.090E+03, 2.845E+02, 3.250E+02, 2.933E+02
 3.105E+03, 2.843E+02, 3.250E+02, 2.933E+02
 3.120E+03, 2.845E+02, 3.250E+02, 2.933E+02
 3.135E+03, 2.850E+02, 3.250E+02, 2.934E+02
 3.150E+03, 2.851E+02, 3.250E+02, 2.934E+02
 3.165E+03, 2.846E+02, 3.250E+02, 2.933E+02
 3.180E+03, 2.846E+02, 3.250E+02, 2.932E+02
 3.195E+03, 2.850E+02, 3.250E+02, 2.933E+02
 3.210E+03, 2.849E+02, 3.250E+02, 2.933E+02
 3.225E+03, 2.851E+02, 3.250E+02, 2.933E+02
 3.240E+03, 2.852E+02, 3.250E+02, 2.933E+02
 3.255E+03, 2.855E+02, 3.250E+02, 2.933E+02
 3.270E+03, 2.858E+02, 3.250E+02, 2.934E+02
 3.285E+03, 2.858E+02, 3.250E+02, 2.934E+02
 3.300E+03, 2.857E+02, 3.250E+02, 2.934E+02
 3.315E+03, 2.853E+02, 3.250E+02, 2.934E+02
 3.330E+03, 2.855E+02, 3.250E+02, 2.934E+02
 3.345E+03, 2.859E+02, 3.250E+02, 2.935E+02
 3.360E+03, 2.863E+02, 3.250E+02, 2.936E+02
 3.375E+03, 2.865E+02, 3.139E+02, 2.936E+02
 3.390E+03, 2.865E+02, 2.919E+02, 2.929E+02
 3.405E+03, 2.863E+02, 2.698E+02, 2.915E+02
 3.420E+03, 2.863E+02, 2.477E+02, 2.897E+02
 3.435E+03, 2.859E+02, 2.257E+02, 2.873E+02
 3.450E+03, 2.843E+02, 2.036E+02, 2.843E+02
 3.465E+03, 2.837E+02, 1.828E+02, 2.812E+02
 3.480E+03, 2.830E+02, 1.780E+02, 2.779E+02
 3.495E+03, 2.819E+02, 1.780E+02, 2.748E+02
 3.510E+03, 2.804E+02, 1.780E+02, 2.717E+02
 3.525E+03, 2.798E+02, 1.780E+02, 2.688E+02
 3.540E+03, 2.789E+02, 1.780E+02, 2.660E+02
 3.555E+03, 2.765E+02, 1.780E+02, 2.631E+02
 3.570E+03, 2.752E+02, 1.780E+02, 2.603E+02
 3.585E+03, 2.739E+02, 1.780E+02, 2.578E+02
 3.600E+03, 2.730E+02, 1.780E+02, 2.553E+02
