s,C,C
Time,"Cable Temp","Shroud Temp"
 0.000E+00, 2.400E+01, 2.400E+01
 1.501E+01, 2.401E+01, 5.858E+01
 3.002E+01, 2.428E+01, 1.271E+02
 4.501E+01, 2.537E+01, 1.959E+02
 6.001E+01, 2.790E+01, 2.653E+02
 7.501E+01, 3.249E+01, 3.066E+02
 9.001E+01, 3.888E+01, 3.189E+02
 1.050E+02, 4.588E+01, 3.183E+02
 1.200E+02, 5.265E+01, 3.138E+02
 1.350E+02, 5.884E+01, 3.092E+02
 1.500E+02, 6.437E+01, 3.047E+02
 1.650E+02, 6.934E+01, 3.006E+02
 1.800E+02, 7.389E+01, 3.000E+02
 1.950E+02, 7.813E+01, 3.000E+02
 2.100E+02, 8.216E+01, 3.000E+02
 2.250E+02, 8.605E+01, 3.000E+02
 2.400E+02, 8.983E+01, 3.000E+02
 2.550E+02, 9.353E+01, 3.000E+02
 2.700E+02, 9.717E+01, 3.000E+02
 2.850E+02, 1.007E+02, 3.000E+02
 3.000E+02, 1.042E+02, 3.000E+02
 3.150E+02, 1.075E+02, 3.000E+02
 3.300E+02, 1.108E+02, 3.000E+02
 3.450E+02, 1.140E+02, 3.000E+02
 3.600E+02, 1.171E+02, 3.000E+02
 3.750E+02, 1.202E+02, 3.000E+02
 3.900E+02, 1.232E+02, 3.000E+02
 4.050E+02, 1.261E+02, 3.000E+02
 4.200E+02, 1.290E+02, 3.000E+02
 4.350E+02, 1.317E+02, 3.000E+02
 4.500E+02, 1.344E+02, 3.000E+02
 4.650E+02, 1.371E+02, 3.000E+02
 4.800E+02, 1.398E+02, 3.000E+02
 4.950E+02, 1.423E+02, 3.000E+02
 5.100E+02, 1.448E+02, 3.000E+02
 5.250E+02, 1.472E+02, 3.000E+02
 5.400E+02, 1.496E+02, 3.000E+02
 5.550E+02, 1.518E+02, 3.000E+02
 5.700E+02, 1.540E+02, 3.000E+02
 5.850E+02, 1.563E+02, 3.000E+02
 6.000E+02, 1.585E+02, 3.000E+02
 6.150E+02, 1.606E+02, 3.000E+02
 6.300E+02, 1.626E+02, 3.000E+02
 6.450E+02, 1.646E+02, 3.000E+02
 6.600E+02, 1.666E+02, 3.000E+02
 6.750E+02, 1.685E+02, 3.000E+02
 6.900E+02, 1.704E+02, 3.000E+02
 7.050E+02, 1.724E+02, 3.000E+02
 7.200E+02, 1.742E+02, 3.000E+02
 7.350E+02, 1.759E+02, 3.000E+02
 7.500E+02, 1.775E+02, 3.000E+02
 7.650E+02, 1.792E+02, 3.000E+02
 7.800E+02, 1.808E+02, 3.000E+02
 7.950E+02, 1.824E+02, 3.000E+02
 8.100E+02, 1.841E+02, 3.000E+02
 8.250E+02, 1.855E+02, 3.000E+02
 8.400E+02, 1.870E+02, 3.000E+02
 8.550E+02, 1.885E+02, 3.000E+02
 8.700E+02, 1.900E+02, 3.000E+02
 8.850E+02, 1.914E+02, 3.000E+02
 9.000E+02, 1.926E+02, 3.000E+02
 9.150E+02, 1.939E+02, 3.000E+02
 9.300E+02, 1.951E+02, 3.000E+02
 9.450E+02, 1.963E+02, 3.000E+02
 9.600E+02, 1.974E+02, 3.000E+02
 9.750E+02, 1.984E+02, 3.000E+02
 9.900E+02, 1.995E+02, 3.000E+02
 1.005E+03, 2.007E+02, 3.000E+02
 1.020E+03, 2.018E+02, 3.000E+02
 1.035E+03, 2.030E+02, 3.000E+02
 1.050E+03, 2.042E+02, 3.000E+02
 1.065E+03, 2.052E+02, 3.000E+02
 1.080E+03, 2.063E+02, 3.000E+02
 1.095E+03, 2.072E+02, 3.000E+02
 1.110E+03, 2.082E+02, 3.000E+02
 1.125E+03, 2.091E+02, 3.000E+02
 1.140E+03, 2.100E+02, 3.000E+02
 1.155E+03, 2.110E+02, 3.000E+02
 1.170E+03, 2.118E+02, 3.000E+02
 1.185E+03, 2.127E+02, 3.000E+02
 1.200E+03, 2.135E+02, 3.000E+02
 1.215E+03, 2.141E+02, 3.000E+02
 1.230E+03, 2.148E+02, 3.000E+02
 1.245E+03, 2.156E+02, 3.000E+02
 1.260E+03, 2.162E+02, 3.000E+02
 1.275E+03, 2.168E+02, 3.000E+02
 1.290E+03, 2.175E+02, 3.000E+02
 1.305E+03, 2.183E+02, 3.000E+02
 1.320E+03, 2.189E+02, 3.000E+02
 1.335E+03, 2.196E+02, 3.000E+02
 1.350E+03, 2.203E+02, 3.000E+02
 1.365E+03, 2.210E+02, 3.000E+02
 1.380E+03, 2.216E+02, 3.000E+02
 1.395E+03, 2.221E+02, 3.000E+02
 1.410E+03, 2.227E+02, 3.000E+02
 1.425E+03, 2.234E+02, 3.000E+02
 1.440E+03, 2.240E+02, 3.000E+02
 1.455E+03, 2.245E+02, 3.000E+02
 1.470E+03, 2.249E+02, 3.000E+02
 1.485E+03, 2.254E+02, 3.000E+02
 1.500E+03, 2.259E+02, 2.964E+02
 1.515E+03, 2.263E+02, 2.891E+02
 1.530E+03, 2.264E+02, 2.819E+02
 1.545E+03, 2.261E+02, 2.746E+02
 1.560E+03, 2.256E+02, 2.674E+02
 1.575E+03, 2.250E+02, 2.601E+02
 1.590E+03, 2.241E+02, 2.529E+02
 1.605E+03, 2.230E+02, 2.457E+02
 1.620E+03, 2.218E+02, 2.384E+02
 1.635E+03, 2.204E+02, 2.312E+02
 1.650E+03, 2.189E+02, 2.239E+02
 1.665E+03, 2.172E+02, 2.167E+02
 1.680E+03, 2.156E+02, 2.094E+02
 1.695E+03, 2.139E+02, 2.038E+02
 1.710E+03, 2.122E+02, 2.034E+02
 1.725E+03, 2.107E+02, 2.034E+02
 1.740E+03, 2.091E+02, 2.034E+02
 1.755E+03, 2.077E+02, 2.034E+02
 1.770E+03, 2.063E+02, 2.034E+02
 1.785E+03, 2.049E+02, 2.034E+02
 1.800E+03, 2.037E+02, 2.034E+02
