s,C,C,C
Time,"Cable Temp","Shroud Temp","Conduit"
 0.000E+00, 3.100E+01, 3.100E+01, 3.100E+01
 1.509E+01, 3.099E+01, 7.175E+01, 3.106E+01
 3.004E+01, 3.101E+01, 1.518E+02, 3.170E+01
 4.502E+01, 3.110E+01, 2.318E+02, 3.357E+01
 6.001E+01, 3.129E+01, 3.073E+02, 3.734E+01
 7.503E+01, 3.173E+01, 3.250E+02, 4.263E+01
 9.002E+01, 3.236E+01, 3.250E+02, 4.802E+01
 1.050E+02, 3.272E+01, 3.250E+02, 5.329E+01
 1.200E+02, 3.321E+01, 3.250E+02, 5.845E+01
 1.350E+02, 3.379E+01, 3.250E+02, 6.352E+01
 1.500E+02, 3.439E+01, 3.250E+02, 6.852E+01
 1.650E+02, 3.501E+01, 3.250E+02, 7.345E+01
 1.800E+02, 3.578E+01, 3.250E+02, 7.829E+01
 1.950E+02, 3.672E+01, 3.250E+02, 8.308E+01
 2.100E+02, 3.761E+01, 3.250E+02, 8.776E+01
 2.250E+02, 3.870E+01, 3.250E+02, 9.239E+01
 2.400E+02, 3.975E+01, 3.250E+02, 9.691E+01
 2.550E+02, 4.087E+01, 3.250E+02, 1.014E+02
 2.700E+02, 4.206E+01, 3.250E+02, 1.057E+02
 2.850E+02, 4.337E+01, 3.250E+02, 1.100E+02
 3.000E+02, 4.481E+01, 3.250E+02, 1.142E+02
 3.150E+02, 4.618E+01, 3.250E+02, 1.184E+02
 3.300E+02, 4.760E+01, 3.250E+02, 1.225E+02
 3.450E+02, 4.909E+01, 3.250E+02, 1.264E+02
 3.600E+02, 5.066E+01, 3.250E+02, 1.304E+02
 3.750E+02, 5.226E+01, 3.250E+02, 1.342E+02
 3.900E+02, 5.391E+01, 3.250E+02, 1.380E+02
 4.050E+02, 5.564E+01, 3.250E+02, 1.417E+02
 4.200E+02, 5.741E+01, 3.250E+02, 1.453E+02
 4.350E+02, 5.922E+01, 3.250E+02, 1.489E+02
 4.500E+02, 6.110E+01, 3.250E+02, 1.524E+02
 4.650E+02, 6.304E+01, 3.250E+02, 1.559E+02
 4.800E+02, 6.503E+01, 3.250E+02, 1.592E+02
 4.950E+02, 6.710E+01, 3.250E+02, 1.625E+02
 5.100E+02, 6.915E+01, 3.250E+02, 1.658E+02
 5.250E+02, 7.126E+01, 3.250E+02, 1.689E+02
 5.400E+02, 7.342E+01, 3.250E+02, 1.721E+02
 5.550E+02, 7.565E+01, 3.250E+02, 1.751E+02
 5.700E+02, 7.793E+01, 3.250E+02, 1.782E+02
 5.850E+02, 8.021E+01, 3.250E+02, 1.811E+02
 6.000E+02, 8.251E+01, 3.250E+02, 1.840E+02
 6.150E+02, 8.485E+01, 3.250E+02, 1.868E+02
 6.300E+02, 8.721E+01, 3.250E+02, 1.896E+02
 6.450E+02, 8.961E+01, 3.250E+02, 1.923E+02
 6.600E+02, 9.207E+01, 3.250E+02, 1.949E+02
 6.750E+02, 9.452E+01, 3.250E+02, 1.975E+02
 6.900E+02, 9.701E+01, 3.250E+02, 2.000E+02
 7.050E+02, 9.950E+01, 3.250E+02, 2.025E+02
 7.200E+02, 1.021E+02, 3.250E+02, 2.049E+02
 7.350E+02, 1.046E+02, 3.250E+02, 2.072E+02
 7.500E+02, 1.072E+02, 3.250E+02, 2.095E+02
 7.650E+02, 1.097E+02, 3.250E+02, 2.117E+02
 7.800E+02, 1.123E+02, 3.250E+02, 2.139E+02
 7.950E+02, 1.149E+02, 3.250E+02, 2.160E+02
 8.100E+02, 1.175E+02, 3.250E+02, 2.181E+02
 8.250E+02, 1.201E+02, 3.250E+02, 2.201E+02
 8.400E+02, 1.227E+02, 3.250E+02, 2.221E+02
 8.550E+02, 1.253E+02, 3.250E+02, 2.240E+02
 8.700E+02, 1.279E+02, 3.250E+02, 2.259E+02
 8.850E+02, 1.306E+02, 3.250E+02, 2.278E+02
 9.000E+02, 1.332E+02, 3.250E+02, 2.296E+02
 9.150E+02, 1.358E+02, 3.250E+02, 2.313E+02
 9.300E+02, 1.384E+02, 3.250E+02, 2.330E+02
 9.450E+02, 1.410E+02, 3.250E+02, 2.347E+02
 9.600E+02, 1.436E+02, 3.250E+02, 2.363E+02
 9.750E+02, 1.461E+02, 3.250E+02, 2.379E+02
 9.900E+02, 1.486E+02, 3.250E+02, 2.394E+02
 1.005E+03, 1.511E+02, 3.250E+02, 2.408E+02
 1.020E+03, 1.537E+02, 3.250E+02, 2.422E+02
 1.035E+03, 1.562E+02, 3.250E+02, 2.436E+02
 1.050E+03, 1.588E+02, 3.250E+02, 2.450E+02
 1.065E+03, 1.613E+02, 3.250E+02, 2.464E+02
 1.080E+03, 1.637E+02, 3.250E+02, 2.477E+02
 1.095E+03, 1.662E+02, 3.250E+02, 2.490E+02
 1.110E+03, 1.686E+02, 3.250E+02, 2.502E+02
 1.125E+03, 1.709E+02, 3.250E+02, 2.514E+02
 1.140E+03, 1.733E+02, 3.250E+02, 2.526E+02
 1.155E+03, 1.756E+02, 3.250E+02, 2.537E+02
 1.170E+03, 1.779E+02, 3.250E+02, 2.549E+02
 1.185E+03, 1.802E+02, 3.250E+02, 2.560E+02
 1.200E+03, 1.825E+02, 3.250E+02, 2.571E+02
 1.215E+03, 1.848E+02, 3.250E+02, 2.581E+02
 1.230E+03, 1.869E+02, 3.250E+02, 2.591E+02
 1.245E+03, 1.891E+02, 3.250E+02, 2.600E+02
 1.260E+03, 1.913E+02, 3.250E+02, 2.610E+02
 1.275E+03, 1.934E+02, 3.250E+02, 2.619E+02
 1.290E+03, 1.955E+02, 3.250E+02, 2.628E+02
 1.305E+03, 1.975E+02, 3.250E+02, 2.636E+02
 1.320E+03, 1.995E+02, 3.250E+02, 2.645E+02
 1.335E+03, 2.016E+02, 3.250E+02, 2.653E+02
 1.350E+03, 2.035E+02, 3.250E+02, 2.661E+02
 1.365E+03, 2.054E+02, 3.250E+02, 2.669E+02
 1.380E+03, 2.073E+02, 3.250E+02, 2.676E+02
 1.395E+03, 2.092E+02, 3.250E+02, 2.684E+02
 1.410E+03, 2.110E+02, 3.250E+02, 2.690E+02
 1.425E+03, 2.128E+02, 3.250E+02, 2.697E+02
 1.440E+03, 2.146E+02, 3.250E+02, 2.704E+02
 1.455E+03, 2.162E+02, 3.250E+02, 2.710E+02
 1.470E+03, 2.180E+02, 3.250E+02, 2.717E+02
 1.485E+03, 2.197E+02, 3.250E+02, 2.723E+02
 1.500E+03, 2.213E+02, 3.250E+02, 2.729E+02
 1.515E+03, 2.230E+02, 3.250E+02, 2.735E+02
 1.530E+03, 2.246E+02, 3.250E+02, 2.741E+02
 1.545E+03, 2.262E+02, 3.250E+02, 2.747E+02
 1.560E+03, 2.277E+02, 3.250E+02, 2.753E+02
 1.575E+03, 2.292E+02, 3.250E+02, 2.758E+02
 1.590E+03, 2.307E+02, 3.250E+02, 2.764E+02
 1.605E+03, 2.322E+02, 3.250E+02, 2.769E+02
 1.620E+03, 2.335E+02, 3.250E+02, 2.774E+02
 1.635E+03, 2.349E+02, 3.250E+02, 2.779E+02
 1.650E+03, 2.363E+02, 3.250E+02, 2.784E+02
 1.665E+03, 2.377E+02, 3.250E+02, 2.788E+02
 1.680E+03, 2.389E+02, 3.250E+02, 2.793E+02
 1.695E+03, 2.403E+02, 3.250E+02, 2.797E+02
 1.710E+03, 2.416E+02, 3.250E+02, 2.802E+02
 1.725E+03, 2.428E+02, 3.250E+02, 2.806E+02
 1.740E+03, 2.440E+02, 3.250E+02, 2.810E+02
 1.755E+03, 2.452E+02, 3.250E+02, 2.814E+02
 1.770E+03, 2.463E+02, 3.250E+02, 2.818E+02
 1.785E+03, 2.474E+02, 3.250E+02, 2.821E+02
 1.800E+03, 2.485E+02, 3.250E+02, 2.825E+02
 1.815E+03, 2.496E+02, 3.250E+02, 2.829E+02
 1.830E+03, 2.506E+02, 3.250E+02, 2.832E+02
 1.845E+03, 2.516E+02, 3.250E+02, 2.835E+02
 1.860E+03, 2.526E+02, 3.250E+02, 2.839E+02
 1.875E+03, 2.537E+02, 3.250E+02, 2.842E+02
 1.890E+03, 2.547E+02, 3.250E+02, 2.846E+02
 1.905E+03, 2.556E+02, 3.250E+02, 2.849E+02
 1.920E+03, 2.565E+02, 3.250E+02, 2.851E+02
 1.935E+03, 2.574E+02, 3.250E+02, 2.854E+02
 1.950E+03, 2.583E+02, 3.250E+02, 2.857E+02
 1.965E+03, 2.592E+02, 3.250E+02, 2.860E+02
 1.980E+03, 2.601E+02, 3.250E+02, 2.863E+02
 1.995E+03, 2.609E+02, 3.250E+02, 2.866E+02
 2.010E+03, 2.616E+02, 3.250E+02, 2.868E+02
 2.025E+03, 2.624E+02, 3.250E+02, 2.871E+02
 2.040E+03, 2.632E+02, 3.250E+02, 2.873E+02
 2.055E+03, 2.640E+02, 3.250E+02, 2.876E+02
 2.070E+03, 2.648E+02, 3.250E+02, 2.878E+02
 2.085E+03, 2.654E+02, 3.250E+02, 2.880E+02
 2.100E+03, 2.660E+02, 3.250E+02, 2.882E+02
 2.115E+03, 2.664E+02, 3.250E+02, 2.884E+02
 2.130E+03, 2.671E+02, 3.250E+02, 2.886E+02
 2.145E+03, 2.679E+02, 3.250E+02, 2.888E+02
 2.160E+03, 2.686E+02, 3.250E+02, 2.890E+02
 2.175E+03, 2.692E+02, 3.250E+02, 2.892E+02
 2.190E+03, 2.698E+02, 3.250E+02, 2.895E+02
 2.205E+03, 2.705E+02, 3.250E+02, 2.896E+02
 2.220E+03, 2.710E+02, 3.250E+02, 2.898E+02
 2.235E+03, 2.716E+02, 3.250E+02, 2.900E+02
 2.250E+03, 2.722E+02, 3.250E+02, 2.901E+02
 2.265E+03, 2.727E+02, 3.250E+02, 2.903E+02
 2.280E+03, 2.732E+02, 3.250E+02, 2.905E+02
 2.295E+03, 2.738E+02, 3.250E+02, 2.906E+02
 2.310E+03, 2.743E+02, 3.250E+02, 2.908E+02
 2.325E+03, 2.748E+02, 3.250E+02, 2.910E+02
 2.340E+03, 2.752E+02, 3.250E+02, 2.911E+02
 2.355E+03, 2.756E+02, 3.250E+02, 2.912E+02
 2.370E+03, 2.761E+02, 3.250E+02, 2.913E+02
 2.385E+03, 2.765E+02, 3.250E+02, 2.915E+02
 2.400E+03, 2.770E+02, 3.250E+02, 2.917E+02
 2.415E+03, 2.773E+02, 3.250E+02, 2.918E+02
 2.430E+03, 2.778E+02, 3.250E+02, 2.919E+02
 2.445E+03, 2.782E+02, 3.250E+02, 2.921E+02
 2.460E+03, 2.786E+02, 3.250E+02, 2.922E+02
 2.475E+03, 2.790E+02, 3.250E+02, 2.924E+02
 2.490E+03, 2.794E+02, 3.250E+02, 2.925E+02
 2.505E+03, 2.798E+02, 3.250E+02, 2.926E+02
 2.520E+03, 2.801E+02, 3.250E+02, 2.927E+02
 2.535E+03, 2.803E+02, 3.250E+02, 2.928E+02
 2.550E+03, 2.807E+02, 3.250E+02, 2.929E+02
 2.565E+03, 2.811E+02, 3.250E+02, 2.930E+02
 2.580E+03, 2.814E+02, 3.250E+02, 2.931E+02
 2.595E+03, 2.817E+02, 3.250E+02, 2.932E+02
 2.610E+03, 2.819E+02, 3.250E+02, 2.933E+02
 2.625E+03, 2.822E+02, 3.250E+02, 2.933E+02
 2.640E+03, 2.826E+02, 3.250E+02, 2.935E+02
 2.655E+03, 2.829E+02, 3.250E+02, 2.936E+02
 2.670E+03, 2.831E+02, 3.250E+02, 2.936E+02
 2.685E+03, 2.834E+02, 3.250E+02, 2.937E+02
 2.700E+03, 2.837E+02, 3.250E+02, 2.938E+02
 2.715E+03, 2.839E+02, 3.250E+02, 2.938E+02
 2.730E+03, 2.842E+02, 3.250E+02, 2.939E+02
 2.745E+03, 2.844E+02, 3.250E+02, 2.940E+02
 2.760E+03, 2.846E+02, 3.250E+02, 2.941E+02
 2.775E+03, 2.848E+02, 3.250E+02, 2.941E+02
 2.790E+03, 2.850E+02, 3.250E+02, 2.942E+02
 2.805E+03, 2.853E+02, 3.250E+02, 2.943E+02
 2.820E+03, 2.855E+02, 3.250E+02, 2.944E+02
 2.835E+03, 2.857E+02, 3.250E+02, 2.944E+02
 2.850E+03, 2.859E+02, 3.250E+02, 2.945E+02
 2.865E+03, 2.860E+02, 3.250E+02, 2.945E+02
 2.880E+03, 2.862E+02, 3.250E+02, 2.945E+02
 2.895E+03, 2.864E+02, 3.250E+02, 2.946E+02
 2.910E+03, 2.866E+02, 3.250E+02, 2.947E+02
 2.925E+03, 2.868E+02, 3.250E+02, 2.948E+02
 2.940E+03, 2.870E+02, 3.250E+02, 2.948E+02
 2.955E+03, 2.869E+02, 3.250E+02, 2.948E+02
 2.970E+03, 2.872E+02, 3.250E+02, 2.949E+02
 2.985E+03, 2.874E+02, 3.250E+02, 2.949E+02
 3.000E+03, 2.876E+02, 3.250E+02, 2.950E+02
 3.015E+03, 2.877E+02, 3.250E+02, 2.950E+02
 3.030E+03, 2.879E+02, 3.250E+02, 2.951E+02
 3.045E+03, 2.879E+02, 3.250E+02, 2.951E+02
 3.060E+03, 2.881E+02, 3.250E+02, 2.951E+02
 3.075E+03, 2.881E+02, 3.250E+02, 2.951E+02
 3.090E+03, 2.883E+02, 3.250E+02, 2.952E+02
 3.105E+03, 2.884E+02, 3.250E+02, 2.952E+02
 3.120E+03, 2.885E+02, 3.250E+02, 2.953E+02
 3.135E+03, 2.886E+02, 3.250E+02, 2.953E+02
 3.150E+03, 2.887E+02, 3.250E+02, 2.953E+02
 3.165E+03, 2.889E+02, 3.250E+02, 2.954E+02
 3.180E+03, 2.890E+02, 3.250E+02, 2.954E+02
 3.195E+03, 2.891E+02, 3.250E+02, 2.955E+02
 3.210E+03, 2.892E+02, 3.250E+02, 2.955E+02
 3.225E+03, 2.892E+02, 3.250E+02, 2.955E+02
 3.240E+03, 2.894E+02, 3.250E+02, 2.956E+02
 3.255E+03, 2.895E+02, 3.250E+02, 2.956E+02
 3.270E+03, 2.896E+02, 3.250E+02, 2.956E+02
 3.285E+03, 2.897E+02, 3.250E+02, 2.957E+02
 3.300E+03, 2.899E+02, 3.250E+02, 2.957E+02
 3.315E+03, 2.899E+02, 3.250E+02, 2.957E+02
 3.330E+03, 2.900E+02, 3.250E+02, 2.958E+02
 3.345E+03, 2.901E+02, 3.250E+02, 2.959E+02
 3.360E+03, 2.902E+02, 3.250E+02, 2.959E+02
 3.375E+03, 2.902E+02, 3.139E+02, 2.957E+02
 3.390E+03, 2.903E+02, 2.919E+02, 2.950E+02
 3.405E+03, 2.903E+02, 2.698E+02, 2.936E+02
 3.420E+03, 2.901E+02, 2.478E+02, 2.917E+02
 3.435E+03, 2.898E+02, 2.257E+02, 2.893E+02
 3.450E+03, 2.894E+02, 2.037E+02, 2.865E+02
 3.465E+03, 2.889E+02, 1.828E+02, 2.834E+02
 3.480E+03, 2.881E+02, 1.780E+02, 2.802E+02
 3.495E+03, 2.872E+02, 1.780E+02, 2.771E+02
 3.510E+03, 2.863E+02, 1.780E+02, 2.741E+02
 3.525E+03, 2.852E+02, 1.780E+02, 2.712E+02
 3.540E+03, 2.842E+02, 1.780E+02, 2.685E+02
 3.555E+03, 2.830E+02, 1.780E+02, 2.657E+02
 3.570E+03, 2.818E+02, 1.780E+02, 2.631E+02
 3.585E+03, 2.807E+02, 1.780E+02, 2.606E+02
 3.600E+03, 2.795E+02, 1.780E+02, 2.581E+02
