s,C,C
Time,"Cable Temp","Shroud Temp"
 0.0000000E+000, 2.4000000E+001, 2.4000000E+001
 1.0018576E+001, 2.4001703E+001, 4.8966518E+001
 2.0004967E+001, 2.4051483E+001, 9.8480225E+001
 3.0001611E+001, 2.4277273E+001, 1.4797469E+002
 4.0004657E+001, 2.4826654E+001, 1.9752318E+002
 5.0008886E+001, 2.5867378E+001, 2.4708701E+002
 6.0012266E+001, 2.7591082E+001, 2.9665875E+002
 7.0001980E+001, 3.0225725E+001, 3.4619208E+002
 8.0005235E+001, 3.4028786E+001, 3.9572769E+002
 9.0007823E+001, 3.9324558E+001, 4.4529071E+002
 1.0000989E+002, 4.6467155E+001, 4.6999878E+002
 1.1001409E+002, 5.5210629E+001, 4.7000000E+002
 1.2001064E+002, 6.4536575E+001, 4.7000000E+002
 1.3000658E+002, 7.3810379E+001, 4.7000000E+002
 1.4000303E+002, 8.2842743E+001, 4.7000000E+002
 1.5000090E+002, 9.1506279E+001, 4.7000000E+002
 1.6001433E+002, 9.9613083E+001, 4.7000000E+002
 1.7000166E+002, 1.0728887E+002, 4.7000000E+002
 1.8000486E+002, 1.1463333E+002, 4.7000000E+002
 1.9000293E+002, 1.2170168E+002, 4.7000000E+002
 2.0000761E+002, 1.2851646E+002, 4.7000000E+002
 2.1000442E+002, 1.3504407E+002, 4.7000000E+002
 2.2000470E+002, 1.4125311E+002, 4.7000000E+002
 2.3000092E+002, 1.4721916E+002, 4.7000000E+002
 2.4000437E+002, 1.5302942E+002, 4.7000000E+002
 2.5000064E+002, 1.5861041E+002, 4.7000000E+002
 2.6001475E+002, 1.6392039E+002, 4.7000000E+002
 2.7001523E+002, 1.6905334E+002, 4.7000000E+002
 2.8000674E+002, 1.7411287E+002, 4.7000000E+002
 2.9001113E+002, 1.7902011E+002, 4.7000000E+002
 3.0000828E+002, 1.8378697E+002, 4.7000000E+002
 3.1000299E+002, 1.8845918E+002, 4.7000000E+002
 3.2001018E+002, 1.9294286E+002, 4.7000000E+002
 3.3000202E+002, 1.9728642E+002, 4.7000000E+002
 3.4001424E+002, 2.0151550E+002, 4.7000000E+002
 3.5001043E+002, 2.0560687E+002, 4.7000000E+002
 3.6000714E+002, 2.0969257E+002, 4.7000000E+002
 3.7001633E+002, 2.1364891E+002, 4.7000000E+002
 3.8001152E+002, 2.1757446E+002, 4.7000000E+002
 3.9000052E+002, 2.2149182E+002, 4.7000000E+002
 4.0000167E+002, 2.2526259E+002, 4.7000000E+002
 4.1001309E+002, 2.2893428E+002, 4.7000000E+002
 4.2000036E+002, 2.3257463E+002, 4.7000000E+002
 4.3000787E+002, 2.3611462E+002, 4.7000000E+002
 4.4000383E+002, 2.3941545E+002, 4.7000000E+002
 4.5001260E+002, 2.4262175E+002, 4.7000000E+002
 4.6000382E+002, 2.4576247E+002, 4.7000000E+002
 4.7000259E+002, 2.4884073E+002, 4.7000000E+002
 4.8000261E+002, 2.5188048E+002, 4.7000000E+002
 4.9000142E+002, 2.5492377E+002, 4.7000000E+002
 5.0001467E+002, 2.5778806E+002, 4.7000000E+002
 5.1000942E+002, 2.6045154E+002, 4.7000000E+002
 5.2001460E+002, 2.6300241E+002, 4.7000000E+002
 5.3000164E+002, 2.6560815E+002, 4.7000000E+002
 5.4000386E+002, 2.6808328E+002, 4.7000000E+002
 5.5000977E+002, 2.7051645E+002, 4.7000000E+002
 5.6000377E+002, 2.7289249E+002, 4.7000000E+002
 5.7000581E+002, 2.7520212E+002, 4.7000000E+002
 5.8001606E+002, 2.7747070E+002, 4.7000000E+002
 5.9000042E+002, 2.7973151E+002, 4.7000000E+002
 6.0000255E+002, 2.8207410E+002, 4.7000000E+002
 6.1001108E+002, 2.8440561E+002, 4.7000000E+002
 6.2000566E+002, 2.8664435E+002, 4.7000000E+002
 6.3000854E+002, 2.8873392E+002, 4.7000000E+002
 6.4000888E+002, 2.9079465E+002, 4.7000000E+002
 6.5000395E+002, 2.9272122E+002, 4.7000000E+002
 6.6000015E+002, 2.9452655E+002, 4.7000000E+002
 6.7000041E+002, 2.9629099E+002, 4.7000000E+002
 6.8000399E+002, 2.9804553E+002, 4.7000000E+002
 6.9000105E+002, 2.9973523E+002, 4.7000000E+002
 7.0001005E+002, 3.0141397E+002, 4.7000000E+002
 7.1000493E+002, 3.0312079E+002, 4.7000000E+002
 7.2000632E+002, 3.0476169E+002, 4.7000000E+002
 7.3001509E+002, 3.0649515E+002, 4.7000000E+002
 7.4000163E+002, 3.0822675E+002, 4.7000000E+002
 7.5000883E+002, 3.0981494E+002, 4.7000000E+002
 7.6001050E+002, 3.1122107E+002, 4.7000000E+002
 7.7001372E+002, 3.1266385E+002, 4.7000000E+002
 7.8001234E+002, 3.1410007E+002, 4.7000000E+002
 7.9001172E+002, 3.1544608E+002, 4.7000000E+002
 8.0001143E+002, 3.1679550E+002, 4.7000000E+002
 8.1000135E+002, 3.1811401E+002, 4.7000000E+002
 8.2000902E+002, 3.1939017E+002, 4.7000000E+002
 8.3001049E+002, 3.2063297E+002, 4.7000000E+002
 8.4001061E+002, 3.2190320E+002, 4.7000000E+002
 8.5000726E+002, 3.2310803E+002, 4.7000000E+002
 8.6000409E+002, 3.2432910E+002, 4.7000000E+002
 8.7000837E+002, 3.2549802E+002, 4.7000000E+002
 8.8000496E+002, 3.2658310E+002, 4.7000000E+002
 8.9000014E+002, 3.2769424E+002, 4.7000000E+002
 9.0000605E+002, 3.2872696E+002, 4.7000000E+002
 9.1000224E+002, 3.2975671E+002, 4.7000000E+002
 9.2000367E+002, 3.3078766E+002, 4.7000000E+002
 9.3000337E+002, 3.3178842E+002, 4.7000000E+002
 9.4000012E+002, 3.3275345E+002, 4.7000000E+002
 9.5000338E+002, 3.3368427E+002, 4.7000000E+002
 9.6001364E+002, 3.3459805E+002, 4.7000000E+002
 9.7001108E+002, 3.3550461E+002, 4.7000000E+002
 9.8000739E+002, 3.3626053E+002, 4.7000000E+002
 9.9001335E+002, 3.3691769E+002, 4.7000000E+002
 1.0000070E+003, 3.3755560E+002, 4.7000000E+002
 1.0100124E+003, 3.3812067E+002, 4.7000000E+002
 1.0200129E+003, 3.3874661E+002, 4.7000000E+002
 1.0300121E+003, 3.3942834E+002, 4.7000000E+002
 1.0400059E+003, 3.4012930E+002, 4.7000000E+002
 1.0500105E+003, 3.4074924E+002, 4.7000000E+002
 1.0600098E+003, 3.4130563E+002, 4.7000000E+002
 1.0700049E+003, 3.4193314E+002, 4.7000000E+002
 1.0800091E+003, 3.4255280E+002, 4.7000000E+002
 1.0900082E+003, 3.4313058E+002, 4.7000000E+002
 1.1000000E+003, 3.4371848E+002, 4.7000000E+002
 1.1100067E+003, 3.4424750E+002, 4.7000000E+002
 1.1200051E+003, 3.4475848E+002, 4.7000000E+002
 1.1300152E+003, 3.4513895E+002, 4.7000000E+002
 1.1400002E+003, 3.4546155E+002, 4.7000000E+002
 1.1500142E+003, 3.4580042E+002, 4.7000000E+002
 1.1600067E+003, 3.4616812E+002, 4.7000000E+002
 1.1700020E+003, 3.4657999E+002, 4.7000000E+002
 1.1800129E+003, 3.4693823E+002, 4.7000000E+002
 1.1900017E+003, 3.4724960E+002, 4.7000000E+002
 1.2000096E+003, 3.4754483E+002, 4.7000000E+002
 1.2100022E+003, 3.4779703E+002, 4.7000000E+002
 1.2200051E+003, 3.4799411E+002, 4.7000000E+002
 1.2300098E+003, 3.4819308E+002, 4.7000000E+002
 1.2400002E+003, 3.4838205E+002, 4.7000000E+002
 1.2500023E+003, 3.4861020E+002, 4.7000000E+002
 1.2600069E+003, 3.4892377E+002, 4.7000000E+002
 1.2700003E+003, 3.4923532E+002, 4.7000000E+002
 1.2800039E+003, 3.4955746E+002, 4.7000000E+002
 1.2900080E+003, 3.4994656E+002, 4.7000000E+002
 1.3000061E+003, 3.5026962E+002, 4.7000000E+002
 1.3100030E+003, 3.5052625E+002, 4.7000000E+002
 1.3200075E+003, 3.5072119E+002, 4.7000000E+002
 1.3300058E+003, 3.5092111E+002, 4.7000000E+002
 1.3400131E+003, 3.5112286E+002, 4.7000000E+002
 1.3500026E+003, 3.5133679E+002, 4.7000000E+002
 1.3600063E+003, 3.5153149E+002, 4.7000000E+002
 1.3700109E+003, 3.5178262E+002, 4.7000000E+002
 1.3800045E+003, 3.5195328E+002, 4.7000000E+002
 1.3900053E+003, 3.5201962E+002, 4.7000000E+002
 1.4000124E+003, 3.5203973E+002, 4.7000000E+002
 1.4100045E+003, 3.5206876E+002, 4.7000000E+002
 1.4200078E+003, 3.5220190E+002, 4.7000000E+002
 1.4300116E+003, 3.5237891E+002, 4.7000000E+002
 1.4400077E+003, 3.5249326E+002, 4.7000000E+002
 1.4500049E+003, 3.5257010E+002, 4.7000000E+002
 1.4600121E+003, 3.5261102E+002, 4.7000000E+002
 1.4700067E+003, 3.5260410E+002, 4.7000000E+002
 1.4800061E+003, 3.5263696E+002, 4.7000000E+002
 1.4900043E+003, 3.5272354E+002, 4.7000000E+002
 1.5000075E+003, 3.5278778E+002, 4.7000000E+002
 1.5100083E+003, 3.5280939E+002, 4.7000000E+002
 1.5200043E+003, 3.5285150E+002, 4.7000000E+002
 1.5300005E+003, 3.5289124E+002, 4.7000000E+002
 1.5400070E+003, 3.5289462E+002, 4.7000000E+002
 1.5500079E+003, 3.5290817E+002, 4.7000000E+002
 1.5600012E+003, 3.5296948E+002, 4.7000000E+002
 1.5700110E+003, 3.5302496E+002, 4.7000000E+002
 1.5800009E+003, 3.5311145E+002, 4.7000000E+002
 1.5900088E+003, 3.5319684E+002, 4.7000000E+002
 1.6000083E+003, 3.5325314E+002, 4.7000000E+002
 1.6100019E+003, 3.5327960E+002, 4.7000000E+002
 1.6200078E+003, 3.5326041E+002, 4.7000000E+002
 1.6300048E+003, 3.5325208E+002, 4.7000000E+002
 1.6400111E+003, 3.5330347E+002, 4.7000000E+002
 1.6500112E+003, 3.5343552E+002, 4.7000000E+002
 1.6600064E+003, 3.5352518E+002, 4.7000000E+002
 1.6700056E+003, 3.5359564E+002, 4.7000000E+002
 1.6800085E+003, 3.5360660E+002, 4.7000000E+002
 1.6900039E+003, 3.5363870E+002, 4.7000000E+002
 1.7000086E+003, 3.5373355E+002, 4.7000000E+002
 1.7100091E+003, 3.5383002E+002, 4.7000000E+002
 1.7200051E+003, 3.5381058E+002, 4.7000000E+002
 1.7300060E+003, 3.5380081E+002, 4.7000000E+002
 1.7400019E+003, 3.5381207E+002, 4.7000000E+002
 1.7500016E+003, 3.5386508E+002, 4.7000000E+002
 1.7600055E+003, 3.5392328E+002, 4.7000000E+002
 1.7700102E+003, 3.5400412E+002, 4.7000000E+002
 1.7800075E+003, 3.5405298E+002, 4.7000000E+002
 1.7900069E+003, 3.5409909E+002, 4.7000000E+002
 1.8000112E+003, 3.5420334E+002, 4.7000000E+002
