s,C,C
Time,"Cable Temp","Shroud Temp"
 0.000E+00, 2.400E+01, 2.400E+01
 1.508E+01, 2.400E+01, 7.364E+01
 3.000E+01, 2.428E+01, 1.711E+02
 4.501E+01, 2.588E+01, 2.686E+02
 6.003E+01, 3.012E+01, 3.663E+02
 7.503E+01, 3.877E+01, 4.585E+02
 9.003E+01, 5.332E+01, 4.800E+02
 1.050E+02, 7.114E+01, 4.800E+02
 1.200E+02, 8.896E+01, 4.800E+02
 1.350E+02, 1.058E+02, 4.800E+02
 1.500E+02, 1.214E+02, 4.800E+02
 1.650E+02, 1.359E+02, 4.800E+02
 1.800E+02, 1.495E+02, 4.800E+02
 1.950E+02, 1.623E+02, 4.800E+02
 2.100E+02, 1.742E+02, 4.800E+02
 2.250E+02, 1.855E+02, 4.800E+02
 2.400E+02, 1.962E+02, 4.800E+02
 2.550E+02, 2.063E+02, 4.800E+02
 2.700E+02, 2.159E+02, 4.800E+02
 2.850E+02, 2.250E+02, 4.800E+02
 3.000E+02, 2.338E+02, 4.800E+02
 3.150E+02, 2.421E+02, 4.800E+02
 3.300E+02, 2.501E+02, 4.800E+02
 3.450E+02, 2.577E+02, 4.800E+02
 3.600E+02, 2.650E+02, 4.800E+02
 3.750E+02, 2.721E+02, 4.800E+02
 3.900E+02, 2.788E+02, 4.800E+02
 4.050E+02, 2.854E+02, 4.800E+02
 4.200E+02, 2.916E+02, 4.800E+02
 4.350E+02, 2.976E+02, 4.800E+02
 4.500E+02, 3.034E+02, 4.800E+02
 4.650E+02, 3.090E+02, 4.800E+02
 4.800E+02, 3.143E+02, 4.800E+02
 4.950E+02, 3.195E+02, 4.800E+02
 5.100E+02, 3.245E+02, 4.800E+02
 5.250E+02, 3.293E+02, 4.800E+02
 5.400E+02, 3.339E+02, 4.800E+02
 5.550E+02, 3.384E+02, 4.800E+02
 5.700E+02, 3.426E+02, 4.800E+02
 5.850E+02, 3.467E+02, 4.800E+02
 6.000E+02, 3.507E+02, 4.800E+02
 6.150E+02, 3.544E+02, 4.800E+02
 6.300E+02, 3.581E+02, 4.800E+02
 6.450E+02, 3.616E+02, 4.800E+02
 6.600E+02, 3.650E+02, 4.800E+02
 6.750E+02, 3.682E+02, 4.800E+02
 6.900E+02, 3.714E+02, 4.784E+02
 7.050E+02, 3.743E+02, 4.716E+02
 7.200E+02, 3.767E+02, 4.645E+02
 7.350E+02, 3.785E+02, 4.573E+02
 7.500E+02, 3.797E+02, 4.502E+02
 7.650E+02, 3.805E+02, 4.430E+02
 7.800E+02, 3.808E+02, 4.359E+02
 7.950E+02, 3.807E+02, 4.287E+02
 8.100E+02, 3.804E+02, 4.216E+02
 8.250E+02, 3.799E+02, 4.144E+02
 8.400E+02, 3.790E+02, 4.073E+02
 8.550E+02, 3.779E+02, 4.001E+02
 8.700E+02, 3.766E+02, 3.930E+02
 8.850E+02, 3.751E+02, 3.858E+02
 9.000E+02, 3.734E+02, 3.787E+02
 9.150E+02, 3.716E+02, 3.732E+02
 9.300E+02, 3.696E+02, 3.694E+02
 9.450E+02, 3.677E+02, 3.656E+02
 9.600E+02, 3.659E+02, 3.617E+02
 9.750E+02, 3.641E+02, 3.579E+02
 9.900E+02, 3.623E+02, 3.541E+02
 1.005E+03, 3.605E+02, 3.503E+02
 1.020E+03, 3.586E+02, 3.464E+02
 1.035E+03, 3.568E+02, 3.426E+02
 1.050E+03, 3.549E+02, 3.388E+02
 1.065E+03, 3.530E+02, 3.350E+02
 1.080E+03, 3.510E+02, 3.312E+02
 1.095E+03, 3.491E+02, 3.273E+02
 1.110E+03, 3.471E+02, 3.235E+02
 1.125E+03, 3.450E+02, 3.197E+02
 1.140E+03, 3.430E+02, 3.159E+02
 1.155E+03, 3.409E+02, 3.120E+02
 1.170E+03, 3.388E+02, 3.082E+02
 1.185E+03, 3.367E+02, 3.044E+02
 1.200E+03, 3.345E+02, 3.006E+02
 1.215E+03, 3.324E+02, 2.967E+02
 1.230E+03, 3.302E+02, 2.929E+02
 1.245E+03, 3.279E+02, 2.891E+02
 1.260E+03, 3.257E+02, 2.856E+02
 1.275E+03, 3.235E+02, 2.822E+02
 1.290E+03, 3.212E+02, 2.788E+02
 1.305E+03, 3.190E+02, 2.754E+02
 1.320E+03, 3.167E+02, 2.719E+02
 1.335E+03, 3.145E+02, 2.685E+02
 1.350E+03, 3.122E+02, 2.651E+02
 1.365E+03, 3.100E+02, 2.617E+02
 1.380E+03, 3.078E+02, 2.583E+02
 1.395E+03, 3.055E+02, 2.548E+02
 1.410E+03, 3.032E+02, 2.514E+02
 1.425E+03, 3.010E+02, 2.480E+02
 1.440E+03, 2.987E+02, 2.446E+02
 1.455E+03, 2.964E+02, 2.412E+02
 1.470E+03, 2.942E+02, 2.377E+02
 1.485E+03, 2.919E+02, 2.343E+02
 1.500E+03, 2.897E+02, 2.309E+02
 1.515E+03, 2.874E+02, 2.275E+02
 1.530E+03, 2.851E+02, 2.241E+02
 1.545E+03, 2.829E+02, 2.206E+02
 1.560E+03, 2.806E+02, 2.172E+02
 1.575E+03, 2.783E+02, 2.138E+02
 1.590E+03, 2.761E+02, 2.104E+02
 1.605E+03, 2.738E+02, 2.071E+02
 1.620E+03, 2.716E+02, 2.064E+02
 1.635E+03, 2.694E+02, 2.064E+02
 1.650E+03, 2.673E+02, 2.064E+02
 1.665E+03, 2.652E+02, 2.064E+02
 1.680E+03, 2.633E+02, 2.064E+02
 1.695E+03, 2.614E+02, 2.064E+02
 1.710E+03, 2.596E+02, 2.064E+02
 1.725E+03, 2.578E+02, 2.064E+02
 1.740E+03, 2.561E+02, 2.064E+02
 1.755E+03, 2.544E+02, 2.064E+02
 1.770E+03, 2.528E+02, 2.064E+02
 1.785E+03, 2.512E+02, 2.064E+02
 1.800E+03, 2.497E+02, 2.064E+02
