s,C,C
Time,"Cable Temp","Shroud Temp"
 0.000E+00, 2.800E+01, 2.800E+01
 1.510E+01, 2.819E+01, 6.248E+01
 3.001E+01, 3.030E+01, 1.301E+02
 4.503E+01, 3.564E+01, 1.978E+02
 6.003E+01, 4.468E+01, 2.656E+02
 7.502E+01, 5.876E+01, 3.333E+02
 9.002E+01, 7.829E+01, 4.011E+02
 1.050E+02, 1.057E+02, 4.651E+02
 1.200E+02, 1.344E+02, 4.800E+02
 1.350E+02, 1.558E+02, 4.800E+02
 1.500E+02, 1.741E+02, 4.800E+02
 1.650E+02, 1.902E+02, 4.800E+02
 1.800E+02, 2.039E+02, 4.800E+02
 1.950E+02, 2.165E+02, 4.800E+02
 2.100E+02, 2.280E+02, 4.800E+02
 2.250E+02, 2.389E+02, 4.800E+02
 2.400E+02, 2.490E+02, 4.800E+02
 2.550E+02, 2.581E+02, 4.800E+02
 2.700E+02, 2.673E+02, 4.800E+02
 2.850E+02, 2.749E+02, 4.800E+02
 3.000E+02, 2.828E+02, 4.800E+02
 3.150E+02, 2.901E+02, 4.800E+02
 3.300E+02, 2.966E+02, 4.800E+02
 3.450E+02, 3.032E+02, 4.800E+02
 3.600E+02, 3.097E+02, 4.800E+02
 3.750E+02, 3.157E+02, 4.800E+02
 3.900E+02, 3.213E+02, 4.800E+02
 4.050E+02, 3.270E+02, 4.800E+02
 4.200E+02, 3.319E+02, 4.800E+02
 4.350E+02, 3.369E+02, 4.800E+02
 4.500E+02, 3.411E+02, 4.800E+02
 4.650E+02, 3.460E+02, 4.800E+02
 4.800E+02, 3.501E+02, 4.800E+02
 4.950E+02, 3.534E+02, 4.800E+02
 5.100E+02, 3.571E+02, 4.800E+02
 5.250E+02, 3.603E+02, 4.800E+02
 5.400E+02, 3.635E+02, 4.800E+02
 5.550E+02, 3.669E+02, 4.800E+02
 5.700E+02, 3.694E+02, 4.800E+02
 5.850E+02, 3.721E+02, 4.800E+02
 6.000E+02, 3.745E+02, 4.800E+02
 6.150E+02, 3.769E+02, 4.800E+02
 6.300E+02, 3.788E+02, 4.800E+02
 6.450E+02, 3.812E+02, 4.800E+02
 6.600E+02, 3.834E+02, 4.800E+02
 6.750E+02, 3.851E+02, 4.800E+02
 6.900E+02, 3.870E+02, 4.800E+02
 7.050E+02, 3.889E+02, 4.800E+02
 7.200E+02, 3.901E+02, 4.800E+02
 7.350E+02, 3.920E+02, 4.800E+02
 7.500E+02, 3.923E+02, 4.800E+02
 7.650E+02, 3.936E+02, 4.800E+02
 7.800E+02, 3.946E+02, 4.800E+02
 7.950E+02, 3.961E+02, 4.800E+02
 8.100E+02, 3.972E+02, 4.800E+02
 8.250E+02, 3.991E+02, 4.800E+02
 8.400E+02, 4.008E+02, 4.800E+02
 8.550E+02, 4.020E+02, 4.800E+02
 8.700E+02, 4.025E+02, 4.800E+02
 8.850E+02, 4.035E+02, 4.800E+02
 9.000E+02, 4.037E+02, 4.800E+02
 9.150E+02, 4.051E+02, 4.800E+02
 9.300E+02, 4.060E+02, 4.800E+02
 9.450E+02, 4.063E+02, 4.800E+02
 9.600E+02, 4.073E+02, 4.800E+02
 9.750E+02, 4.082E+02, 4.800E+02
 9.900E+02, 4.088E+02, 4.800E+02
 1.005E+03, 4.085E+02, 4.800E+02
 1.020E+03, 4.088E+02, 4.800E+02
 1.035E+03, 4.098E+02, 4.800E+02
 1.050E+03, 4.097E+02, 4.800E+02
 1.065E+03, 4.101E+02, 4.800E+02
 1.080E+03, 4.097E+02, 4.800E+02
 1.095E+03, 4.102E+02, 4.800E+02
 1.110E+03, 4.102E+02, 4.800E+02
 1.125E+03, 4.108E+02, 4.800E+02
 1.140E+03, 4.108E+02, 4.800E+02
 1.155E+03, 4.118E+02, 4.800E+02
 1.170E+03, 4.127E+02, 4.800E+02
 1.185E+03, 4.132E+02, 4.800E+02
 1.200E+03, 4.136E+02, 4.800E+02
 1.215E+03, 4.132E+02, 4.800E+02
 1.230E+03, 4.130E+02, 4.800E+02
 1.245E+03, 4.132E+02, 4.800E+02
 1.260E+03, 4.134E+02, 4.800E+02
 1.275E+03, 4.137E+02, 4.800E+02
 1.290E+03, 4.138E+02, 4.800E+02
 1.305E+03, 4.140E+02, 4.800E+02
 1.320E+03, 4.150E+02, 4.800E+02
 1.335E+03, 4.157E+02, 4.800E+02
 1.350E+03, 4.150E+02, 4.800E+02
 1.365E+03, 4.143E+02, 4.800E+02
 1.380E+03, 4.142E+02, 4.800E+02
 1.395E+03, 4.146E+02, 4.800E+02
 1.410E+03, 4.141E+02, 4.800E+02
 1.425E+03, 4.149E+02, 4.780E+02
 1.440E+03, 4.128E+02, 4.694E+02
 1.455E+03, 4.109E+02, 4.604E+02
 1.470E+03, 4.088E+02, 4.514E+02
 1.485E+03, 4.049E+02, 4.423E+02
 1.500E+03, 4.007E+02, 4.333E+02
 1.515E+03, 3.965E+02, 4.242E+02
 1.530E+03, 3.928E+02, 4.152E+02
 1.545E+03, 3.882E+02, 4.061E+02
 1.560E+03, 3.824E+02, 3.971E+02
 1.575E+03, 3.778E+02, 3.881E+02
 1.590E+03, 3.725E+02, 3.790E+02
 1.605E+03, 3.678E+02, 3.700E+02
 1.620E+03, 3.629E+02, 3.609E+02
 1.635E+03, 3.573E+02, 3.519E+02
 1.650E+03, 3.518E+02, 3.429E+02
 1.665E+03, 3.467E+02, 3.338E+02
 1.680E+03, 3.409E+02, 3.248E+02
 1.695E+03, 3.352E+02, 3.157E+02
 1.710E+03, 3.298E+02, 3.067E+02
 1.725E+03, 3.251E+02, 2.997E+02
 1.740E+03, 3.207E+02, 2.992E+02
 1.755E+03, 3.166E+02, 2.992E+02
 1.770E+03, 3.128E+02, 2.992E+02
 1.785E+03, 3.100E+02, 2.992E+02
 1.800E+03, 3.074E+02, 2.992E+02
