s,C,C
Time,"Cable Temp","Shroud Temp"
 0.000E+00, 2.400E+01, 2.400E+01
 1.510E+01, 2.401E+01, 6.168E+01
 3.002E+01, 2.428E+01, 1.356E+02
 4.503E+01, 2.550E+01, 2.084E+02
 6.002E+01, 2.843E+01, 2.787E+02
 7.501E+01, 3.373E+01, 3.147E+02
 9.003E+01, 4.092E+01, 3.256E+02
 1.050E+02, 4.872E+01, 3.223E+02
 1.200E+02, 5.616E+01, 3.179E+02
 1.350E+02, 6.294E+01, 3.134E+02
 1.500E+02, 6.905E+01, 3.090E+02
 1.650E+02, 7.456E+01, 3.054E+02
 1.800E+02, 7.963E+01, 3.050E+02
 1.950E+02, 8.440E+01, 3.050E+02
 2.100E+02, 8.901E+01, 3.050E+02
 2.250E+02, 9.348E+01, 3.050E+02
 2.400E+02, 9.785E+01, 3.050E+02
 2.550E+02, 1.021E+02, 3.050E+02
 2.700E+02, 1.063E+02, 3.050E+02
 2.850E+02, 1.104E+02, 3.050E+02
 3.000E+02, 1.143E+02, 3.050E+02
 3.150E+02, 1.183E+02, 3.050E+02
 3.300E+02, 1.221E+02, 3.050E+02
 3.450E+02, 1.258E+02, 3.050E+02
 3.600E+02, 1.295E+02, 3.050E+02
 3.750E+02, 1.332E+02, 3.050E+02
 3.900E+02, 1.367E+02, 3.050E+02
 4.050E+02, 1.402E+02, 3.050E+02
 4.200E+02, 1.435E+02, 3.050E+02
 4.350E+02, 1.469E+02, 3.050E+02
 4.500E+02, 1.501E+02, 3.050E+02
 4.650E+02, 1.533E+02, 3.050E+02
 4.800E+02, 1.564E+02, 3.050E+02
 4.950E+02, 1.594E+02, 3.050E+02
 5.100E+02, 1.624E+02, 3.050E+02
 5.250E+02, 1.653E+02, 3.050E+02
 5.400E+02, 1.681E+02, 3.050E+02
 5.550E+02, 1.709E+02, 3.050E+02
 5.700E+02, 1.736E+02, 3.050E+02
 5.850E+02, 1.762E+02, 3.050E+02
 6.000E+02, 1.788E+02, 3.050E+02
 6.150E+02, 1.814E+02, 3.050E+02
 6.300E+02, 1.838E+02, 3.050E+02
 6.450E+02, 1.863E+02, 3.050E+02
 6.600E+02, 1.886E+02, 3.050E+02
 6.750E+02, 1.910E+02, 3.050E+02
 6.900E+02, 1.933E+02, 3.050E+02
 7.050E+02, 1.955E+02, 3.050E+02
 7.200E+02, 1.976E+02, 3.050E+02
 7.350E+02, 1.997E+02, 3.050E+02
 7.500E+02, 2.018E+02, 3.050E+02
 7.650E+02, 2.037E+02, 3.050E+02
 7.800E+02, 2.057E+02, 3.050E+02
 7.950E+02, 2.076E+02, 3.050E+02
 8.100E+02, 2.094E+02, 3.050E+02
 8.250E+02, 2.112E+02, 3.050E+02
 8.400E+02, 2.130E+02, 3.050E+02
 8.550E+02, 2.147E+02, 3.050E+02
 8.700E+02, 2.163E+02, 3.050E+02
 8.850E+02, 2.179E+02, 3.050E+02
 9.000E+02, 2.195E+02, 3.050E+02
 9.150E+02, 2.210E+02, 3.050E+02
 9.300E+02, 2.225E+02, 3.050E+02
 9.450E+02, 2.240E+02, 3.050E+02
 9.600E+02, 2.254E+02, 3.050E+02
 9.750E+02, 2.267E+02, 3.050E+02
 9.900E+02, 2.281E+02, 3.050E+02
 1.005E+03, 2.294E+02, 3.050E+02
 1.020E+03, 2.306E+02, 3.050E+02
 1.035E+03, 2.319E+02, 3.050E+02
 1.050E+03, 2.331E+02, 3.050E+02
 1.065E+03, 2.343E+02, 3.050E+02
 1.080E+03, 2.354E+02, 3.050E+02
 1.095E+03, 2.365E+02, 3.024E+02
 1.110E+03, 2.375E+02, 2.979E+02
 1.125E+03, 2.383E+02, 2.933E+02
 1.140E+03, 2.389E+02, 2.888E+02
 1.155E+03, 2.392E+02, 2.843E+02
 1.170E+03, 2.394E+02, 2.797E+02
 1.185E+03, 2.394E+02, 2.752E+02
 1.200E+03, 2.393E+02, 2.706E+02
 1.215E+03, 2.390E+02, 2.661E+02
 1.230E+03, 2.387E+02, 2.616E+02
 1.245E+03, 2.382E+02, 2.570E+02
 1.260E+03, 2.376E+02, 2.525E+02
 1.275E+03, 2.369E+02, 2.479E+02
 1.290E+03, 2.362E+02, 2.434E+02
 1.305E+03, 2.353E+02, 2.389E+02
 1.320E+03, 2.344E+02, 2.343E+02
 1.335E+03, 2.334E+02, 2.298E+02
 1.350E+03, 2.323E+02, 2.252E+02
 1.365E+03, 2.312E+02, 2.207E+02
 1.380E+03, 2.300E+02, 2.162E+02
 1.395E+03, 2.288E+02, 2.116E+02
 1.410E+03, 2.275E+02, 2.075E+02
 1.425E+03, 2.261E+02, 2.066E+02
 1.440E+03, 2.249E+02, 2.066E+02
 1.455E+03, 2.236E+02, 2.066E+02
 1.470E+03, 2.225E+02, 2.066E+02
 1.485E+03, 2.214E+02, 2.066E+02
 1.500E+03, 2.204E+02, 2.066E+02
 1.515E+03, 2.194E+02, 2.066E+02
 1.530E+03, 2.184E+02, 2.066E+02
 1.545E+03, 2.175E+02, 2.066E+02
 1.560E+03, 2.167E+02, 2.066E+02
 1.575E+03, 2.158E+02, 2.066E+02
 1.590E+03, 2.150E+02, 2.066E+02
 1.605E+03, 2.142E+02, 2.066E+02
 1.620E+03, 2.135E+02, 2.066E+02
 1.635E+03, 2.127E+02, 2.066E+02
 1.650E+03, 2.120E+02, 2.066E+02
 1.665E+03, 2.113E+02, 2.066E+02
 1.680E+03, 2.106E+02, 2.066E+02
 1.695E+03, 2.099E+02, 2.066E+02
 1.710E+03, 2.093E+02, 2.066E+02
 1.725E+03, 2.086E+02, 2.066E+02
 1.740E+03, 2.080E+02, 2.066E+02
 1.755E+03, 2.074E+02, 2.066E+02
 1.770E+03, 2.068E+02, 2.066E+02
 1.785E+03, 2.063E+02, 2.066E+02
 1.800E+03, 2.057E+02, 2.066E+02
