s,C,C
Time,"Cable Temp","Shroud Temp"
 0.000E+00, 2.400E+01, 2.400E+01
 1.506E+01, 2.401E+01, 7.356E+01
 3.006E+01, 2.433E+01, 1.712E+02
 4.504E+01, 2.592E+01, 2.688E+02
 6.001E+01, 3.013E+01, 3.663E+02
 7.501E+01, 3.872E+01, 4.584E+02
 9.004E+01, 5.323E+01, 4.800E+02
 1.050E+02, 7.102E+01, 4.800E+02
 1.200E+02, 8.881E+01, 4.800E+02
 1.350E+02, 1.056E+02, 4.800E+02
 1.500E+02, 1.212E+02, 4.800E+02
 1.650E+02, 1.358E+02, 4.800E+02
 1.800E+02, 1.494E+02, 4.800E+02
 1.950E+02, 1.621E+02, 4.800E+02
 2.100E+02, 1.741E+02, 4.800E+02
 2.250E+02, 1.853E+02, 4.800E+02
 2.400E+02, 1.960E+02, 4.800E+02
 2.550E+02, 2.061E+02, 4.800E+02
 2.700E+02, 2.157E+02, 4.800E+02
 2.850E+02, 2.249E+02, 4.800E+02
 3.000E+02, 2.336E+02, 4.800E+02
 3.150E+02, 2.419E+02, 4.800E+02
 3.300E+02, 2.499E+02, 4.800E+02
 3.450E+02, 2.576E+02, 4.800E+02
 3.600E+02, 2.649E+02, 4.800E+02
 3.750E+02, 2.719E+02, 4.800E+02
 3.900E+02, 2.787E+02, 4.800E+02
 4.050E+02, 2.851E+02, 4.800E+02
 4.200E+02, 2.914E+02, 4.800E+02
 4.350E+02, 2.974E+02, 4.800E+02
 4.500E+02, 3.031E+02, 4.800E+02
 4.650E+02, 3.087E+02, 4.800E+02
 4.800E+02, 3.140E+02, 4.800E+02
 4.950E+02, 3.192E+02, 4.800E+02
 5.100E+02, 3.241E+02, 4.800E+02
 5.250E+02, 3.289E+02, 4.800E+02
 5.400E+02, 3.336E+02, 4.800E+02
 5.550E+02, 3.380E+02, 4.800E+02
 5.700E+02, 3.423E+02, 4.800E+02
 5.850E+02, 3.464E+02, 4.800E+02
 6.000E+02, 3.504E+02, 4.800E+02
 6.150E+02, 3.541E+02, 4.800E+02
 6.300E+02, 3.578E+02, 4.800E+02
 6.450E+02, 3.613E+02, 4.800E+02
 6.600E+02, 3.647E+02, 4.800E+02
 6.750E+02, 3.680E+02, 4.800E+02
 6.900E+02, 3.712E+02, 4.800E+02
 7.050E+02, 3.742E+02, 4.800E+02
 7.200E+02, 3.771E+02, 4.800E+02
 7.350E+02, 3.800E+02, 4.800E+02
 7.500E+02, 3.827E+02, 4.800E+02
 7.650E+02, 3.852E+02, 4.800E+02
 7.800E+02, 3.877E+02, 4.800E+02
 7.950E+02, 3.901E+02, 4.800E+02
 8.100E+02, 3.925E+02, 4.800E+02
 8.250E+02, 3.947E+02, 4.796E+02
 8.400E+02, 3.968E+02, 4.748E+02
 8.550E+02, 3.986E+02, 4.686E+02
 8.700E+02, 3.998E+02, 4.625E+02
 8.850E+02, 4.006E+02, 4.563E+02
 9.000E+02, 4.010E+02, 4.501E+02
 9.150E+02, 4.009E+02, 4.439E+02
 9.300E+02, 4.006E+02, 4.377E+02
 9.450E+02, 4.000E+02, 4.315E+02
 9.600E+02, 3.992E+02, 4.253E+02
 9.750E+02, 3.982E+02, 4.191E+02
 9.900E+02, 3.969E+02, 4.129E+02
 1.005E+03, 3.955E+02, 4.067E+02
 1.020E+03, 3.940E+02, 4.006E+02
 1.035E+03, 3.922E+02, 3.944E+02
 1.050E+03, 3.904E+02, 3.882E+02
 1.065E+03, 3.884E+02, 3.820E+02
 1.080E+03, 3.863E+02, 3.758E+02
 1.095E+03, 3.841E+02, 3.696E+02
 1.110E+03, 3.818E+02, 3.634E+02
 1.125E+03, 3.794E+02, 3.572E+02
 1.140E+03, 3.769E+02, 3.511E+02
 1.155E+03, 3.743E+02, 3.449E+02
 1.170E+03, 3.717E+02, 3.387E+02
 1.185E+03, 3.690E+02, 3.325E+02
 1.200E+03, 3.663E+02, 3.263E+02
 1.215E+03, 3.635E+02, 3.201E+02
 1.230E+03, 3.606E+02, 3.139E+02
 1.245E+03, 3.576E+02, 3.078E+02
 1.260E+03, 3.547E+02, 3.032E+02
 1.275E+03, 3.517E+02, 2.990E+02
 1.290E+03, 3.488E+02, 2.949E+02
 1.305E+03, 3.459E+02, 2.907E+02
 1.320E+03, 3.430E+02, 2.865E+02
 1.335E+03, 3.402E+02, 2.823E+02
 1.350E+03, 3.374E+02, 2.781E+02
 1.365E+03, 3.345E+02, 2.740E+02
 1.380E+03, 3.317E+02, 2.698E+02
 1.395E+03, 3.289E+02, 2.656E+02
 1.410E+03, 3.261E+02, 2.614E+02
 1.425E+03, 3.233E+02, 2.572E+02
 1.440E+03, 3.205E+02, 2.531E+02
 1.455E+03, 3.178E+02, 2.489E+02
 1.470E+03, 3.150E+02, 2.447E+02
 1.485E+03, 3.122E+02, 2.405E+02
 1.500E+03, 3.094E+02, 2.363E+02
 1.515E+03, 3.067E+02, 2.322E+02
 1.530E+03, 3.039E+02, 2.280E+02
 1.545E+03, 3.011E+02, 2.238E+02
 1.560E+03, 2.984E+02, 2.196E+02
 1.575E+03, 2.956E+02, 2.154E+02
 1.590E+03, 2.929E+02, 2.113E+02
 1.605E+03, 2.901E+02, 2.073E+02
 1.620E+03, 2.874E+02, 2.064E+02
 1.635E+03, 2.848E+02, 2.064E+02
 1.650E+03, 2.823E+02, 2.064E+02
 1.665E+03, 2.798E+02, 2.064E+02
 1.680E+03, 2.775E+02, 2.064E+02
 1.695E+03, 2.753E+02, 2.064E+02
 1.710E+03, 2.731E+02, 2.064E+02
 1.725E+03, 2.710E+02, 2.064E+02
 1.740E+03, 2.689E+02, 2.064E+02
 1.755E+03, 2.669E+02, 2.064E+02
 1.770E+03, 2.650E+02, 2.064E+02
 1.785E+03, 2.631E+02, 2.064E+02
 1.800E+03, 2.613E+02, 2.064E+02
