s,C,C
Time,"Cable Temp","Shroud Temp"
 0.0000000E+000, 2.4000000E+001, 2.4000000E+001
 1.0043025E+001, 2.4006001E+001, 7.1821220E+001
 2.0001803E+001, 2.4182987E+001, 1.6632541E+002
 3.0008779E+001, 2.5067945E+001, 2.3164925E+002
 4.0015070E+001, 2.7085718E+001, 2.6828986E+002
 5.0014121E+001, 3.0232229E+001, 3.0491574E+002
 6.0004545E+001, 3.4493664E+001, 3.4150836E+002
 7.0014859E+001, 3.9987209E+001, 3.7812537E+002
 8.0002389E+001, 4.6873569E+001, 4.1473453E+002
 9.0002027E+001, 5.5366238E+001, 4.5132675E+002
 1.0000688E+002, 6.5724121E+001, 4.8795038E+002
 1.1000268E+002, 7.8116638E+001, 5.2456635E+002
 1.2000836E+002, 9.2784012E+001, 5.6118451E+002
 1.3000351E+002, 1.0990955E+002, 5.9780096E+002
 1.4000519E+002, 1.2962349E+002, 6.3441107E+002
 1.5000823E+002, 1.5197159E+002, 6.5564429E+002
 1.6000589E+002, 1.7600061E+002, 6.6156030E+002
 1.7001097E+002, 1.9977275E+002, 6.6747614E+002
 1.8000875E+002, 2.2256992E+002, 6.7339197E+002
 1.9000314E+002, 2.4411075E+002, 6.7930463E+002
 2.0001108E+002, 2.6446790E+002, 6.8522034E+002
 2.1000804E+002, 2.8371567E+002, 6.9113690E+002
 2.2000397E+002, 3.0192972E+002, 6.9704968E+002
 2.3000952E+002, 3.1915384E+002, 6.9237555E+002
 2.4000260E+002, 3.3478067E+002, 6.7716693E+002
 2.5000636E+002, 3.4807214E+002, 6.6195953E+002
 2.6000578E+002, 3.5889404E+002, 6.4674707E+002
 2.7000038E+002, 3.6745029E+002, 6.3267017E+002
 2.8000590E+002, 3.7418124E+002, 6.1971387E+002
 2.9000755E+002, 3.7946631E+002, 6.0675238E+002
 3.0001025E+002, 3.8354657E+002, 5.9379297E+002
 3.1000876E+002, 3.8666501E+002, 5.8083533E+002
 3.2000588E+002, 3.8899225E+002, 5.6788177E+002
 3.3000123E+002, 3.9051489E+002, 5.5492999E+002
 3.4000100E+002, 3.9127890E+002, 5.4197614E+002
 3.5000475E+002, 3.9151700E+002, 5.2901758E+002
 3.6000267E+002, 3.9134592E+002, 5.1605951E+002
 3.7000177E+002, 3.9073657E+002, 5.0310495E+002
 3.8000137E+002, 3.8973035E+002, 4.9014883E+002
 3.9000105E+002, 3.8833774E+002, 4.8057748E+002
 4.0001118E+002, 3.8672330E+002, 4.7437787E+002
 4.1000213E+002, 3.8507660E+002, 4.6818076E+002
 4.2000913E+002, 3.8348572E+002, 4.6198486E+002
 4.3000169E+002, 3.8196515E+002, 4.5578821E+002
 4.4000731E+002, 3.8058643E+002, 4.4959229E+002
 4.5000453E+002, 3.7919620E+002, 4.4339481E+002
 4.6000927E+002, 3.7781046E+002, 4.3719742E+002
 4.7000009E+002, 3.7637170E+002, 4.3100226E+002
 4.8000800E+002, 3.7491217E+002, 4.2480597E+002
 4.9000337E+002, 3.7350189E+002, 4.1860815E+002
 5.0001028E+002, 3.7199371E+002, 4.1241083E+002
 5.1000439E+002, 3.7045596E+002, 4.0593164E+002
 5.2000708E+002, 3.6885382E+002, 3.9917264E+002
 5.3000366E+002, 3.6714850E+002, 3.9241296E+002
 5.4000703E+002, 3.6540195E+002, 3.8565298E+002
 5.5000571E+002, 3.6360837E+002, 3.7889218E+002
 5.6000614E+002, 3.6185104E+002, 3.7213275E+002
 5.7000491E+002, 3.6014474E+002, 3.6537299E+002
 5.8000284E+002, 3.5843677E+002, 3.5861414E+002
 5.9000363E+002, 3.5665479E+002, 3.5185449E+002
 6.0000390E+002, 3.5471359E+002, 3.4509430E+002
 6.1000641E+002, 3.5267526E+002, 3.3833328E+002
 6.2000232E+002, 3.5058167E+002, 3.3157385E+002
 6.3000570E+002, 3.4850079E+002, 3.2678928E+002
 6.4000347E+002, 3.4636893E+002, 3.2397235E+002
 6.5000466E+002, 3.4424252E+002, 3.2115585E+002
 6.6000356E+002, 3.4225464E+002, 3.1833917E+002
 6.7000517E+002, 3.4040112E+002, 3.1552243E+002
 6.8000821E+002, 3.3863834E+002, 3.1270517E+002
 6.9000836E+002, 3.3698547E+002, 3.0988803E+002
 7.0000634E+002, 3.3538837E+002, 3.0707169E+002
 7.1000366E+002, 3.3384631E+002, 3.0425568E+002
 7.2000148E+002, 3.3233090E+002, 3.0143964E+002
 7.3000066E+002, 3.3084048E+002, 2.9862341E+002
 7.4000038E+002, 3.2936511E+002, 2.9580692E+002
 7.5000660E+002, 3.2789481E+002, 2.9317752E+002
 7.6000561E+002, 3.2644254E+002, 2.9073575E+002
 7.7000678E+002, 3.2499271E+002, 2.8829459E+002
 7.8000408E+002, 3.2353668E+002, 2.8585373E+002
 7.9000737E+002, 3.2208920E+002, 2.8341251E+002
 8.0000639E+002, 3.2064673E+002, 2.8097113E+002
 8.1000113E+002, 3.1920596E+002, 2.7853076E+002
 8.2000448E+002, 3.1775504E+002, 2.7608987E+002
 8.3000748E+002, 3.1629739E+002, 2.7364798E+002
 8.4000742E+002, 3.1484634E+002, 2.7120651E+002
 8.5000284E+002, 3.1340015E+002, 2.6876599E+002
 8.6000053E+002, 3.1195615E+002, 2.6632565E+002
 8.7000761E+002, 3.1050845E+002, 2.6388403E+002
 8.8000093E+002, 3.0905243E+002, 2.6144287E+002
 8.9000492E+002, 3.0759216E+002, 2.5900201E+002
 9.0000056E+002, 3.0612988E+002, 2.5656094E+002
 9.1000481E+002, 3.0466302E+002, 2.5411986E+002
 9.2000579E+002, 3.0317905E+002, 2.5167816E+002
 9.3000008E+002, 3.0167819E+002, 2.4923759E+002
 9.4000037E+002, 3.0016617E+002, 2.4679713E+002
 9.5000249E+002, 2.9865335E+002, 2.4435571E+002
 9.6000537E+002, 2.9713889E+002, 2.4191400E+002
 9.7000659E+002, 2.9562799E+002, 2.3947240E+002
 9.8000875E+002, 2.9411090E+002, 2.3703087E+002
 9.9000899E+002, 2.9259033E+002, 2.3458949E+002
 1.0000074E+003, 2.9107251E+002, 2.3214854E+002
 1.0100008E+003, 2.8955814E+002, 2.2970837E+002
 1.0200000E+003, 2.8804648E+002, 2.2726816E+002
 1.0300008E+003, 2.8653607E+002, 2.2482710E+002
 1.0400039E+003, 2.8501895E+002, 2.2238545E+002
 1.0500079E+003, 2.8348785E+002, 2.1994353E+002
 1.0600044E+003, 2.8195343E+002, 2.1750237E+002
 1.0700012E+003, 2.8042419E+002, 2.1506204E+002
 1.0800095E+003, 2.7889957E+002, 2.1262029E+002
 1.0900056E+003, 2.7737659E+002, 2.1017865E+002
 1.1000021E+003, 2.7584625E+002, 2.0773842E+002
 1.1100050E+003, 2.7429868E+002, 2.0652000E+002
 1.1200005E+003, 2.7274219E+002, 2.0652000E+002
 1.1300067E+003, 2.7120389E+002, 2.0652000E+002
 1.1400036E+003, 2.6969531E+002, 2.0652000E+002
 1.1500056E+003, 2.6821664E+002, 2.0652000E+002
 1.1600069E+003, 2.6676837E+002, 2.0652000E+002
 1.1700082E+003, 2.6536938E+002, 2.0652000E+002
 1.1800004E+003, 2.6400699E+002, 2.0652000E+002
 1.1900027E+003, 2.6268765E+002, 2.0652000E+002
 1.2000081E+003, 2.6140005E+002, 2.0652000E+002
