s,C,C,C
Time,"Cable Temp","Shroud Temp","Conduit"
 0.000E+00, 3.100E+01, 3.100E+01, 3.100E+01
 1.509E+01, 3.100E+01, 6.860E+01, 3.106E+01
 3.005E+01, 3.100E+01, 1.425E+02, 3.162E+01
 4.502E+01, 3.102E+01, 2.163E+02, 3.324E+01
 6.004E+01, 3.111E+01, 2.903E+02, 3.647E+01
 7.500E+01, 3.128E+01, 3.642E+02, 4.205E+01
 9.002E+01, 3.150E+01, 4.381E+02, 5.085E+01
 1.050E+02, 3.185E+01, 4.750E+02, 6.303E+01
 1.200E+02, 3.241E+01, 4.750E+02, 7.577E+01
 1.350E+02, 3.314E+01, 4.750E+02, 8.826E+01
 1.500E+02, 3.406E+01, 4.750E+02, 1.006E+02
 1.650E+02, 3.527E+01, 4.750E+02, 1.127E+02
 1.800E+02, 3.673E+01, 4.750E+02, 1.245E+02
 1.950E+02, 3.825E+01, 4.750E+02, 1.360E+02
 2.100E+02, 3.983E+01, 4.750E+02, 1.472E+02
 2.250E+02, 4.156E+01, 4.750E+02, 1.582E+02
 2.400E+02, 4.354E+01, 4.750E+02, 1.690E+02
 2.550E+02, 4.577E+01, 4.750E+02, 1.795E+02
 2.700E+02, 4.817E+01, 4.750E+02, 1.896E+02
 2.850E+02, 5.079E+01, 4.750E+02, 1.995E+02
 3.000E+02, 5.352E+01, 4.750E+02, 2.091E+02
 3.150E+02, 5.645E+01, 4.750E+02, 2.185E+02
 3.300E+02, 5.960E+01, 4.750E+02, 2.276E+02
 3.450E+02, 6.299E+01, 4.750E+02, 2.364E+02
 3.600E+02, 6.669E+01, 4.750E+02, 2.449E+02
 3.750E+02, 7.054E+01, 4.750E+02, 2.532E+02
 3.900E+02, 7.456E+01, 4.750E+02, 2.612E+02
 4.050E+02, 7.876E+01, 4.750E+02, 2.690E+02
 4.200E+02, 8.310E+01, 4.750E+02, 2.764E+02
 4.350E+02, 8.767E+01, 4.750E+02, 2.836E+02
 4.500E+02, 9.237E+01, 4.750E+02, 2.906E+02
 4.650E+02, 9.720E+01, 4.750E+02, 2.973E+02
 4.800E+02, 1.022E+02, 4.750E+02, 3.037E+02
 4.950E+02, 1.073E+02, 4.750E+02, 3.099E+02
 5.100E+02, 1.126E+02, 4.750E+02, 3.159E+02
 5.250E+02, 1.181E+02, 4.750E+02, 3.216E+02
 5.400E+02, 1.236E+02, 4.750E+02, 3.271E+02
 5.550E+02, 1.292E+02, 4.750E+02, 3.323E+02
 5.700E+02, 1.349E+02, 4.750E+02, 3.373E+02
 5.850E+02, 1.407E+02, 4.750E+02, 3.420E+02
 6.000E+02, 1.465E+02, 4.750E+02, 3.465E+02
 6.150E+02, 1.524E+02, 4.750E+02, 3.508E+02
 6.300E+02, 1.583E+02, 4.750E+02, 3.549E+02
 6.450E+02, 1.643E+02, 4.750E+02, 3.588E+02
 6.600E+02, 1.702E+02, 4.750E+02, 3.625E+02
 6.750E+02, 1.762E+02, 4.750E+02, 3.660E+02
 6.900E+02, 1.821E+02, 4.750E+02, 3.693E+02
 7.050E+02, 1.879E+02, 4.750E+02, 3.725E+02
 7.200E+02, 1.938E+02, 4.750E+02, 3.757E+02
 7.350E+02, 1.997E+02, 4.750E+02, 3.788E+02
 7.500E+02, 2.055E+02, 4.750E+02, 3.815E+02
 7.650E+02, 2.113E+02, 4.750E+02, 3.841E+02
 7.800E+02, 2.170E+02, 4.750E+02, 3.867E+02
 7.950E+02, 2.226E+02, 4.750E+02, 3.890E+02
 8.100E+02, 2.281E+02, 4.750E+02, 3.913E+02
 8.250E+02, 2.336E+02, 4.750E+02, 3.934E+02
 8.400E+02, 2.390E+02, 4.750E+02, 3.955E+02
 8.550E+02, 2.443E+02, 4.750E+02, 3.977E+02
 8.700E+02, 2.495E+02, 4.750E+02, 3.995E+02
 8.850E+02, 2.547E+02, 4.750E+02, 4.013E+02
 9.000E+02, 2.598E+02, 4.750E+02, 4.030E+02
 9.150E+02, 2.648E+02, 4.750E+02, 4.046E+02
 9.300E+02, 2.696E+02, 4.750E+02, 4.061E+02
 9.450E+02, 2.743E+02, 4.750E+02, 4.075E+02
 9.600E+02, 2.790E+02, 4.750E+02, 4.089E+02
 9.750E+02, 2.835E+02, 4.750E+02, 4.104E+02
 9.900E+02, 2.880E+02, 4.750E+02, 4.117E+02
 1.005E+03, 2.924E+02, 4.750E+02, 4.129E+02
 1.020E+03, 2.966E+02, 4.750E+02, 4.142E+02
 1.035E+03, 3.008E+02, 4.750E+02, 4.153E+02
 1.050E+03, 3.048E+02, 4.750E+02, 4.164E+02
 1.065E+03, 3.087E+02, 4.750E+02, 4.175E+02
 1.080E+03, 3.126E+02, 4.750E+02, 4.185E+02
 1.095E+03, 3.163E+02, 4.750E+02, 4.194E+02
 1.110E+03, 3.200E+02, 4.750E+02, 4.204E+02
 1.125E+03, 3.235E+02, 4.750E+02, 4.214E+02
 1.140E+03, 3.270E+02, 4.750E+02, 4.221E+02
 1.155E+03, 3.303E+02, 4.750E+02, 4.229E+02
 1.170E+03, 3.336E+02, 4.750E+02, 4.238E+02
 1.185E+03, 3.369E+02, 4.750E+02, 4.247E+02
 1.200E+03, 3.400E+02, 4.750E+02, 4.254E+02
 1.215E+03, 3.431E+02, 4.750E+02, 4.260E+02
 1.230E+03, 3.460E+02, 4.750E+02, 4.267E+02
 1.245E+03, 3.489E+02, 4.750E+02, 4.273E+02
 1.260E+03, 3.517E+02, 4.750E+02, 4.280E+02
 1.275E+03, 3.543E+02, 4.750E+02, 4.286E+02
 1.290E+03, 3.569E+02, 4.750E+02, 4.292E+02
 1.305E+03, 3.595E+02, 4.750E+02, 4.297E+02
 1.320E+03, 3.620E+02, 4.750E+02, 4.302E+02
 1.335E+03, 3.644E+02, 4.750E+02, 4.306E+02
 1.350E+03, 3.667E+02, 4.750E+02, 4.310E+02
 1.365E+03, 3.689E+02, 4.750E+02, 4.315E+02
 1.380E+03, 3.711E+02, 4.750E+02, 4.319E+02
 1.395E+03, 3.732E+02, 4.750E+02, 4.324E+02
 1.410E+03, 3.752E+02, 4.750E+02, 4.328E+02
 1.425E+03, 3.773E+02, 4.750E+02, 4.332E+02
 1.440E+03, 3.793E+02, 4.750E+02, 4.336E+02
 1.455E+03, 3.812E+02, 4.750E+02, 4.340E+02
 1.470E+03, 3.830E+02, 4.750E+02, 4.344E+02
 1.485E+03, 3.849E+02, 4.750E+02, 4.348E+02
 1.500E+03, 3.866E+02, 4.750E+02, 4.351E+02
 1.515E+03, 3.882E+02, 4.750E+02, 4.354E+02
 1.530E+03, 3.898E+02, 4.750E+02, 4.356E+02
 1.545E+03, 3.911E+02, 4.750E+02, 4.358E+02
 1.560E+03, 3.925E+02, 4.750E+02, 4.359E+02
 1.575E+03, 3.938E+02, 4.750E+02, 4.361E+02
 1.590E+03, 3.952E+02, 4.750E+02, 4.364E+02
 1.605E+03, 3.966E+02, 4.750E+02, 4.366E+02
 1.620E+03, 3.980E+02, 4.750E+02, 4.370E+02
 1.635E+03, 3.994E+02, 4.750E+02, 4.373E+02
 1.650E+03, 4.007E+02, 4.750E+02, 4.376E+02
 1.665E+03, 4.019E+02, 4.750E+02, 4.379E+02
 1.680E+03, 4.031E+02, 4.750E+02, 4.382E+02
 1.695E+03, 4.043E+02, 4.750E+02, 4.386E+02
 1.710E+03, 4.055E+02, 4.750E+02, 4.387E+02
 1.725E+03, 4.066E+02, 4.750E+02, 4.388E+02
 1.740E+03, 4.075E+02, 4.750E+02, 4.390E+02
 1.755E+03, 4.085E+02, 4.750E+02, 4.391E+02
 1.770E+03, 4.094E+02, 4.750E+02, 4.393E+02
 1.785E+03, 4.103E+02, 4.750E+02, 4.395E+02
 1.800E+03, 4.112E+02, 4.750E+02, 4.395E+02
 1.815E+03, 4.120E+02, 4.750E+02, 4.397E+02
 1.830E+03, 4.129E+02, 4.750E+02, 4.398E+02
 1.845E+03, 4.138E+02, 4.750E+02, 4.399E+02
 1.860E+03, 4.145E+02, 4.750E+02, 4.400E+02
 1.875E+03, 4.153E+02, 4.750E+02, 4.402E+02
 1.890E+03, 4.160E+02, 4.750E+02, 4.404E+02
 1.905E+03, 4.168E+02, 4.750E+02, 4.406E+02
 1.920E+03, 4.175E+02, 4.750E+02, 4.408E+02
 1.935E+03, 4.183E+02, 4.750E+02, 4.410E+02
 1.950E+03, 4.189E+02, 4.750E+02, 4.410E+02
 1.965E+03, 4.195E+02, 4.750E+02, 4.411E+02
 1.980E+03, 4.200E+02, 4.750E+02, 4.411E+02
 1.995E+03, 4.205E+02, 4.750E+02, 4.412E+02
 2.010E+03, 4.211E+02, 4.750E+02, 4.413E+02
 2.025E+03, 4.216E+02, 4.750E+02, 4.414E+02
 2.040E+03, 4.221E+02, 4.750E+02, 4.415E+02
 2.055E+03, 4.227E+02, 4.750E+02, 4.416E+02
 2.070E+03, 4.233E+02, 4.750E+02, 4.418E+02
 2.085E+03, 4.239E+02, 4.750E+02, 4.421E+02
 2.100E+03, 4.245E+02, 4.750E+02, 4.422E+02
 2.115E+03, 4.251E+02, 4.750E+02, 4.424E+02
 2.130E+03, 4.256E+02, 4.750E+02, 4.424E+02
 2.145E+03, 4.259E+02, 4.750E+02, 4.424E+02
 2.160E+03, 4.263E+02, 4.750E+02, 4.425E+02
 2.175E+03, 4.267E+02, 4.750E+02, 4.426E+02
 2.190E+03, 4.271E+02, 4.750E+02, 4.426E+02
 2.205E+03, 4.274E+02, 4.750E+02, 4.426E+02
 2.220E+03, 4.277E+02, 4.750E+02, 4.426E+02
 2.235E+03, 4.281E+02, 4.750E+02, 4.427E+02
 2.250E+03, 4.284E+02, 4.750E+02, 4.426E+02
 2.265E+03, 4.286E+02, 4.750E+02, 4.427E+02
 2.280E+03, 4.290E+02, 4.750E+02, 4.429E+02
 2.295E+03, 4.293E+02, 4.750E+02, 4.429E+02
 2.310E+03, 4.297E+02, 4.750E+02, 4.430E+02
 2.325E+03, 4.300E+02, 4.750E+02, 4.432E+02
 2.340E+03, 4.304E+02, 4.750E+02, 4.433E+02
 2.355E+03, 4.307E+02, 4.750E+02, 4.433E+02
 2.370E+03, 4.310E+02, 4.750E+02, 4.434E+02
 2.385E+03, 4.313E+02, 4.750E+02, 4.435E+02
 2.400E+03, 4.315E+02, 4.750E+02, 4.435E+02
 2.415E+03, 4.317E+02, 4.750E+02, 4.435E+02
 2.430E+03, 4.319E+02, 4.750E+02, 4.435E+02
 2.445E+03, 4.321E+02, 4.750E+02, 4.436E+02
 2.460E+03, 4.323E+02, 4.750E+02, 4.436E+02
 2.475E+03, 4.325E+02, 4.750E+02, 4.438E+02
 2.490E+03, 4.328E+02, 4.750E+02, 4.437E+02
 2.505E+03, 4.330E+02, 4.750E+02, 4.437E+02
 2.520E+03, 4.332E+02, 4.750E+02, 4.438E+02
 2.535E+03, 4.334E+02, 4.750E+02, 4.439E+02
 2.550E+03, 4.336E+02, 4.750E+02, 4.439E+02
 2.565E+03, 4.338E+02, 4.750E+02, 4.439E+02
 2.580E+03, 4.339E+02, 4.750E+02, 4.438E+02
 2.595E+03, 4.338E+02, 4.750E+02, 4.437E+02
 2.610E+03, 4.338E+02, 4.750E+02, 4.437E+02
 2.625E+03, 4.339E+02, 4.750E+02, 4.436E+02
 2.640E+03, 4.340E+02, 4.750E+02, 4.436E+02
 2.655E+03, 4.341E+02, 4.750E+02, 4.436E+02
 2.670E+03, 4.342E+02, 4.750E+02, 4.436E+02
 2.685E+03, 4.344E+02, 4.750E+02, 4.436E+02
 2.700E+03, 4.345E+02, 4.750E+02, 4.437E+02
 2.715E+03, 4.348E+02, 4.750E+02, 4.439E+02
 2.730E+03, 4.350E+02, 4.750E+02, 4.441E+02
 2.745E+03, 4.352E+02, 4.750E+02, 4.442E+02
 2.760E+03, 4.354E+02, 4.750E+02, 4.443E+02
 2.775E+03, 4.356E+02, 4.750E+02, 4.444E+02
 2.790E+03, 4.357E+02, 4.750E+02, 4.444E+02
 2.805E+03, 4.358E+02, 4.750E+02, 4.443E+02
 2.820E+03, 4.357E+02, 4.750E+02, 4.441E+02
 2.835E+03, 4.356E+02, 4.750E+02, 4.440E+02
 2.850E+03, 4.356E+02, 4.750E+02, 4.438E+02
 2.865E+03, 4.356E+02, 4.750E+02, 4.438E+02
 2.880E+03, 4.357E+02, 4.750E+02, 4.439E+02
 2.895E+03, 4.358E+02, 4.750E+02, 4.437E+02
 2.910E+03, 4.358E+02, 4.750E+02, 4.437E+02
 2.925E+03, 4.359E+02, 4.750E+02, 4.438E+02
 2.940E+03, 4.361E+02, 4.750E+02, 4.439E+02
 2.955E+03, 4.362E+02, 4.750E+02, 4.439E+02
 2.970E+03, 4.363E+02, 4.750E+02, 4.440E+02
 2.985E+03, 4.364E+02, 4.715E+02, 4.439E+02
 3.000E+03, 4.364E+02, 4.646E+02, 4.434E+02
 3.015E+03, 4.365E+02, 4.576E+02, 4.426E+02
 3.030E+03, 4.365E+02, 4.507E+02, 4.415E+02
 3.045E+03, 4.365E+02, 4.438E+02, 4.400E+02
 3.060E+03, 4.363E+02, 4.368E+02, 4.381E+02
 3.075E+03, 4.360E+02, 4.299E+02, 4.361E+02
 3.090E+03, 4.357E+02, 4.230E+02, 4.337E+02
 3.105E+03, 4.350E+02, 4.160E+02, 4.310E+02
 3.120E+03, 4.344E+02, 4.091E+02, 4.284E+02
 3.135E+03, 4.338E+02, 4.021E+02, 4.255E+02
 3.150E+03, 4.329E+02, 3.952E+02, 4.224E+02
 3.165E+03, 4.319E+02, 3.883E+02, 4.192E+02
 3.180E+03, 4.309E+02, 3.813E+02, 4.160E+02
 3.195E+03, 4.298E+02, 3.744E+02, 4.127E+02
 3.210E+03, 4.286E+02, 3.675E+02, 4.093E+02
 3.225E+03, 4.273E+02, 3.605E+02, 4.058E+02
 3.240E+03, 4.260E+02, 3.536E+02, 4.022E+02
 3.255E+03, 4.245E+02, 3.466E+02, 3.986E+02
 3.270E+03, 4.231E+02, 3.397E+02, 3.949E+02
 3.285E+03, 4.216E+02, 3.328E+02, 3.912E+02
 3.300E+03, 4.200E+02, 3.258E+02, 3.874E+02
 3.315E+03, 4.182E+02, 3.189E+02, 3.835E+02
 3.330E+03, 4.163E+02, 3.119E+02, 3.796E+02
 3.345E+03, 4.143E+02, 3.050E+02, 3.757E+02
 3.360E+03, 4.124E+02, 2.981E+02, 3.718E+02
 3.375E+03, 4.104E+02, 2.911E+02, 3.679E+02
 3.390E+03, 4.083E+02, 2.842E+02, 3.638E+02
 3.405E+03, 4.056E+02, 2.773E+02, 3.596E+02
 3.420E+03, 4.031E+02, 2.703E+02, 3.556E+02
 3.435E+03, 4.008E+02, 2.634E+02, 3.516E+02
 3.450E+03, 3.983E+02, 2.564E+02, 3.475E+02
 3.465E+03, 3.958E+02, 2.530E+02, 3.434E+02
 3.480E+03, 3.934E+02, 2.530E+02, 3.397E+02
 3.495E+03, 3.913E+02, 2.530E+02, 3.362E+02
 3.510E+03, 3.890E+02, 2.530E+02, 3.326E+02
 3.525E+03, 3.866E+02, 2.530E+02, 3.293E+02
 3.540E+03, 3.841E+02, 2.530E+02, 3.262E+02
 3.555E+03, 3.818E+02, 2.530E+02, 3.232E+02
 3.570E+03, 3.795E+02, 2.530E+02, 3.203E+02
 3.585E+03, 3.771E+02, 2.530E+02, 3.175E+02
 3.600E+03, 3.748E+02, 2.530E+02, 3.148E+02
