s,C,C
Time,"Cable Temp","Shroud Temp"
 0.000E+00, 2.800E+01, 2.800E+01
 1.510E+01, 2.801E+01, 6.209E+01
 3.007E+01, 2.833E+01, 1.291E+02
 4.506E+01, 2.972E+01, 1.961E+02
 6.005E+01, 3.294E+01, 2.631E+02
 7.504E+01, 3.870E+01, 3.300E+02
 9.003E+01, 4.790E+01, 3.970E+02
 1.050E+02, 6.167E+01, 4.603E+02
 1.200E+02, 8.024E+01, 4.750E+02
 1.350E+02, 1.002E+02, 4.750E+02
 1.500E+02, 1.189E+02, 4.750E+02
 1.650E+02, 1.360E+02, 4.750E+02
 1.800E+02, 1.516E+02, 4.750E+02
 1.950E+02, 1.660E+02, 4.750E+02
 2.100E+02, 1.793E+02, 4.750E+02
 2.250E+02, 1.918E+02, 4.750E+02
 2.400E+02, 2.034E+02, 4.750E+02
 2.550E+02, 2.143E+02, 4.750E+02
 2.700E+02, 2.246E+02, 4.750E+02
 2.850E+02, 2.343E+02, 4.750E+02
 3.000E+02, 2.436E+02, 4.750E+02
 3.150E+02, 2.523E+02, 4.750E+02
 3.300E+02, 2.606E+02, 4.750E+02
 3.450E+02, 2.685E+02, 4.750E+02
 3.600E+02, 2.761E+02, 4.750E+02
 3.750E+02, 2.833E+02, 4.750E+02
 3.900E+02, 2.903E+02, 4.750E+02
 4.050E+02, 2.970E+02, 4.750E+02
 4.200E+02, 3.034E+02, 4.750E+02
 4.350E+02, 3.095E+02, 4.750E+02
 4.500E+02, 3.152E+02, 4.750E+02
 4.650E+02, 3.207E+02, 4.750E+02
 4.800E+02, 3.259E+02, 4.750E+02
 4.950E+02, 3.308E+02, 4.750E+02
 5.100E+02, 3.356E+02, 4.750E+02
 5.250E+02, 3.402E+02, 4.750E+02
 5.400E+02, 3.445E+02, 4.750E+02
 5.550E+02, 3.487E+02, 4.750E+02
 5.700E+02, 3.527E+02, 4.750E+02
 5.850E+02, 3.566E+02, 4.750E+02
 6.000E+02, 3.603E+02, 4.750E+02
 6.150E+02, 3.637E+02, 4.750E+02
 6.300E+02, 3.669E+02, 4.750E+02
 6.450E+02, 3.701E+02, 4.750E+02
 6.600E+02, 3.731E+02, 4.750E+02
 6.750E+02, 3.759E+02, 4.750E+02
 6.900E+02, 3.785E+02, 4.750E+02
 7.050E+02, 3.811E+02, 4.750E+02
 7.200E+02, 3.836E+02, 4.750E+02
 7.350E+02, 3.860E+02, 4.750E+02
 7.500E+02, 3.884E+02, 4.750E+02
 7.650E+02, 3.905E+02, 4.750E+02
 7.800E+02, 3.927E+02, 4.750E+02
 7.950E+02, 3.947E+02, 4.750E+02
 8.100E+02, 3.964E+02, 4.750E+02
 8.250E+02, 3.981E+02, 4.750E+02
 8.400E+02, 3.999E+02, 4.750E+02
 8.550E+02, 4.015E+02, 4.750E+02
 8.700E+02, 4.030E+02, 4.750E+02
 8.850E+02, 4.045E+02, 4.750E+02
 9.000E+02, 4.059E+02, 4.750E+02
 9.150E+02, 4.073E+02, 4.750E+02
 9.300E+02, 4.086E+02, 4.750E+02
 9.450E+02, 4.098E+02, 4.750E+02
 9.600E+02, 4.108E+02, 4.750E+02
 9.750E+02, 4.118E+02, 4.750E+02
 9.900E+02, 4.129E+02, 4.750E+02
 1.005E+03, 4.140E+02, 4.750E+02
 1.020E+03, 4.151E+02, 4.750E+02
 1.035E+03, 4.159E+02, 4.750E+02
 1.050E+03, 4.166E+02, 4.750E+02
 1.065E+03, 4.174E+02, 4.750E+02
 1.080E+03, 4.183E+02, 4.750E+02
 1.095E+03, 4.191E+02, 4.750E+02
 1.110E+03, 4.198E+02, 4.750E+02
 1.125E+03, 4.205E+02, 4.750E+02
 1.140E+03, 4.211E+02, 4.750E+02
 1.155E+03, 4.216E+02, 4.750E+02
 1.170E+03, 4.220E+02, 4.750E+02
 1.185E+03, 4.227E+02, 4.750E+02
 1.200E+03, 4.234E+02, 4.750E+02
 1.215E+03, 4.238E+02, 4.750E+02
 1.230E+03, 4.242E+02, 4.750E+02
 1.245E+03, 4.246E+02, 4.750E+02
 1.260E+03, 4.251E+02, 4.750E+02
 1.275E+03, 4.257E+02, 4.750E+02
 1.290E+03, 4.262E+02, 4.750E+02
 1.305E+03, 4.266E+02, 4.746E+02
 1.320E+03, 4.266E+02, 4.694E+02
 1.335E+03, 4.263E+02, 4.627E+02
 1.350E+03, 4.258E+02, 4.560E+02
 1.365E+03, 4.249E+02, 4.493E+02
 1.380E+03, 4.234E+02, 4.426E+02
 1.395E+03, 4.217E+02, 4.359E+02
 1.410E+03, 4.196E+02, 4.292E+02
 1.425E+03, 4.172E+02, 4.225E+02
 1.440E+03, 4.147E+02, 4.158E+02
 1.455E+03, 4.118E+02, 4.090E+02
 1.470E+03, 4.089E+02, 4.023E+02
 1.485E+03, 4.058E+02, 3.956E+02
 1.500E+03, 4.026E+02, 3.889E+02
 1.515E+03, 3.992E+02, 3.822E+02
 1.530E+03, 3.958E+02, 3.755E+02
 1.545E+03, 3.923E+02, 3.688E+02
 1.560E+03, 3.887E+02, 3.621E+02
 1.575E+03, 3.850E+02, 3.554E+02
 1.590E+03, 3.814E+02, 3.487E+02
 1.605E+03, 3.778E+02, 3.420E+02
 1.620E+03, 3.741E+02, 3.353E+02
 1.635E+03, 3.703E+02, 3.286E+02
 1.650E+03, 3.666E+02, 3.219E+02
 1.665E+03, 3.626E+02, 3.152E+02
 1.680E+03, 3.589E+02, 3.085E+02
 1.695E+03, 3.549E+02, 3.018E+02
 1.710E+03, 3.508E+02, 2.966E+02
 1.725E+03, 3.469E+02, 2.962E+02
 1.740E+03, 3.433E+02, 2.962E+02
 1.755E+03, 3.396E+02, 2.962E+02
 1.770E+03, 3.362E+02, 2.962E+02
 1.785E+03, 3.330E+02, 2.962E+02
 1.800E+03, 3.301E+02, 2.962E+02
