s,C,C
Time,"Cable Temp","Shroud Temp"
 0.000E+00, 2.000E+01, 2.000E+01
 1.501E+01, 2.015E+01, 6.659E+01
 3.005E+01, 2.211E+01, 1.589E+02
 4.502E+01, 2.821E+01, 2.512E+02
 6.003E+01, 4.035E+01, 3.219E+02
 7.502E+01, 5.429E+01, 3.234E+02
 9.000E+01, 6.524E+01, 3.196E+02
 1.050E+02, 7.431E+01, 3.158E+02
 1.200E+02, 8.198E+01, 3.120E+02
 1.350E+02, 8.860E+01, 3.082E+02
 1.500E+02, 9.445E+01, 3.052E+02
 1.650E+02, 9.988E+01, 3.050E+02
 1.800E+02, 1.051E+02, 3.050E+02
 1.950E+02, 1.102E+02, 3.050E+02
 2.100E+02, 1.151E+02, 3.050E+02
 2.250E+02, 1.198E+02, 3.050E+02
 2.400E+02, 1.245E+02, 3.050E+02
 2.550E+02, 1.290E+02, 3.050E+02
 2.700E+02, 1.334E+02, 3.050E+02
 2.850E+02, 1.376E+02, 3.050E+02
 3.000E+02, 1.418E+02, 3.050E+02
 3.150E+02, 1.459E+02, 3.050E+02
 3.300E+02, 1.498E+02, 3.050E+02
 3.450E+02, 1.537E+02, 3.050E+02
 3.600E+02, 1.574E+02, 3.050E+02
 3.750E+02, 1.610E+02, 3.050E+02
 3.900E+02, 1.645E+02, 3.050E+02
 4.050E+02, 1.679E+02, 3.050E+02
 4.200E+02, 1.713E+02, 3.050E+02
 4.350E+02, 1.746E+02, 3.050E+02
 4.500E+02, 1.777E+02, 3.050E+02
 4.650E+02, 1.807E+02, 3.050E+02
 4.800E+02, 1.837E+02, 3.050E+02
 4.950E+02, 1.866E+02, 3.050E+02
 5.100E+02, 1.894E+02, 3.050E+02
 5.250E+02, 1.921E+02, 3.050E+02
 5.400E+02, 1.948E+02, 3.050E+02
 5.550E+02, 1.973E+02, 3.050E+02
 5.700E+02, 1.998E+02, 3.050E+02
 5.850E+02, 2.022E+02, 3.050E+02
 6.000E+02, 2.046E+02, 3.050E+02
 6.150E+02, 2.068E+02, 3.050E+02
 6.300E+02, 2.091E+02, 3.050E+02
 6.450E+02, 2.112E+02, 3.050E+02
 6.600E+02, 2.132E+02, 3.050E+02
 6.750E+02, 2.153E+02, 3.050E+02
 6.900E+02, 2.172E+02, 3.050E+02
 7.050E+02, 2.191E+02, 3.050E+02
 7.200E+02, 2.209E+02, 3.050E+02
 7.350E+02, 2.227E+02, 3.050E+02
 7.500E+02, 2.244E+02, 3.050E+02
 7.650E+02, 2.260E+02, 3.050E+02
 7.800E+02, 2.276E+02, 3.050E+02
 7.950E+02, 2.292E+02, 3.050E+02
 8.100E+02, 2.306E+02, 3.050E+02
 8.250E+02, 2.321E+02, 3.050E+02
 8.400E+02, 2.335E+02, 3.050E+02
 8.550E+02, 2.348E+02, 3.050E+02
 8.700E+02, 2.361E+02, 3.050E+02
 8.850E+02, 2.374E+02, 3.050E+02
 9.000E+02, 2.387E+02, 3.050E+02
 9.150E+02, 2.399E+02, 3.050E+02
 9.300E+02, 2.411E+02, 3.050E+02
 9.450E+02, 2.422E+02, 3.050E+02
 9.600E+02, 2.433E+02, 3.050E+02
 9.750E+02, 2.443E+02, 3.050E+02
 9.900E+02, 2.453E+02, 3.050E+02
 1.005E+03, 2.463E+02, 3.050E+02
 1.020E+03, 2.472E+02, 3.050E+02
 1.035E+03, 2.482E+02, 3.050E+02
 1.050E+03, 2.491E+02, 3.050E+02
 1.065E+03, 2.499E+02, 3.050E+02
 1.080E+03, 2.507E+02, 3.050E+02
 1.095E+03, 2.515E+02, 3.050E+02
 1.110E+03, 2.522E+02, 3.050E+02
 1.125E+03, 2.530E+02, 3.050E+02
 1.140E+03, 2.537E+02, 3.050E+02
 1.155E+03, 2.544E+02, 3.050E+02
 1.170E+03, 2.551E+02, 3.050E+02
 1.185E+03, 2.557E+02, 3.050E+02
 1.200E+03, 2.563E+02, 3.050E+02
 1.215E+03, 2.569E+02, 3.050E+02
 1.230E+03, 2.575E+02, 3.050E+02
 1.245E+03, 2.580E+02, 3.050E+02
 1.260E+03, 2.586E+02, 3.050E+02
 1.275E+03, 2.591E+02, 3.050E+02
 1.290E+03, 2.596E+02, 3.050E+02
 1.305E+03, 2.601E+02, 3.050E+02
 1.320E+03, 2.606E+02, 3.050E+02
 1.335E+03, 2.611E+02, 3.050E+02
 1.350E+03, 2.616E+02, 3.050E+02
 1.365E+03, 2.620E+02, 3.050E+02
 1.380E+03, 2.624E+02, 3.050E+02
 1.395E+03, 2.628E+02, 3.050E+02
 1.410E+03, 2.632E+02, 3.050E+02
 1.425E+03, 2.635E+02, 3.050E+02
 1.440E+03, 2.639E+02, 3.050E+02
 1.455E+03, 2.643E+02, 3.050E+02
 1.470E+03, 2.646E+02, 3.050E+02
 1.485E+03, 2.649E+02, 3.050E+02
 1.500E+03, 2.653E+02, 3.050E+02
 1.515E+03, 2.656E+02, 3.050E+02
 1.530E+03, 2.658E+02, 3.050E+02
 1.545E+03, 2.661E+02, 3.050E+02
 1.560E+03, 2.664E+02, 3.050E+02
 1.575E+03, 2.666E+02, 3.050E+02
 1.590E+03, 2.669E+02, 3.050E+02
 1.605E+03, 2.672E+02, 3.050E+02
 1.620E+03, 2.674E+02, 3.050E+02
 1.635E+03, 2.676E+02, 3.050E+02
 1.650E+03, 2.679E+02, 3.050E+02
 1.665E+03, 2.681E+02, 3.050E+02
 1.680E+03, 2.683E+02, 3.050E+02
 1.695E+03, 2.684E+02, 3.050E+02
 1.710E+03, 2.686E+02, 3.050E+02
 1.725E+03, 2.689E+02, 3.050E+02
 1.740E+03, 2.690E+02, 3.050E+02
 1.755E+03, 2.692E+02, 3.050E+02
 1.770E+03, 2.693E+02, 3.050E+02
 1.785E+03, 2.696E+02, 3.050E+02
 1.800E+03, 2.697E+02, 3.050E+02
 1.815E+03, 2.699E+02, 3.050E+02
 1.830E+03, 2.700E+02, 3.050E+02
 1.845E+03, 2.701E+02, 3.050E+02
 1.860E+03, 2.703E+02, 3.050E+02
 1.875E+03, 2.704E+02, 3.050E+02
 1.890E+03, 2.705E+02, 3.050E+02
 1.905E+03, 2.706E+02, 3.050E+02
 1.920E+03, 2.707E+02, 3.050E+02
 1.935E+03, 2.708E+02, 3.050E+02
 1.950E+03, 2.709E+02, 3.050E+02
 1.965E+03, 2.710E+02, 3.050E+02
 1.980E+03, 2.712E+02, 3.050E+02
 1.995E+03, 2.713E+02, 3.050E+02
 2.010E+03, 2.714E+02, 3.050E+02
 2.025E+03, 2.715E+02, 3.050E+02
 2.040E+03, 2.715E+02, 3.050E+02
 2.055E+03, 2.716E+02, 3.050E+02
 2.070E+03, 2.717E+02, 3.050E+02
 2.085E+03, 2.718E+02, 3.050E+02
 2.100E+03, 2.718E+02, 3.040E+02
 2.115E+03, 2.716E+02, 2.996E+02
 2.130E+03, 2.711E+02, 2.949E+02
 2.145E+03, 2.702E+02, 2.903E+02
 2.160E+03, 2.691E+02, 2.856E+02
 2.175E+03, 2.679E+02, 2.810E+02
 2.190E+03, 2.665E+02, 2.763E+02
 2.205E+03, 2.651E+02, 2.717E+02
 2.220E+03, 2.635E+02, 2.670E+02
 2.235E+03, 2.618E+02, 2.624E+02
 2.250E+03, 2.601E+02, 2.577E+02
 2.265E+03, 2.582E+02, 2.531E+02
 2.280E+03, 2.563E+02, 2.485E+02
 2.295E+03, 2.544E+02, 2.438E+02
 2.310E+03, 2.524E+02, 2.392E+02
 2.325E+03, 2.505E+02, 2.348E+02
 2.340E+03, 2.486E+02, 2.338E+02
 2.355E+03, 2.468E+02, 2.338E+02
 2.370E+03, 2.453E+02, 2.338E+02
 2.385E+03, 2.439E+02, 2.338E+02
 2.400E+03, 2.426E+02, 2.338E+02
