s,C,C
Time,"Cable Temp","Shroud Temp"
 0.000E+00, 3.400E+01, 3.400E+01
 1.505E+01, 3.407E+01, 7.672E+01
 3.001E+01, 3.527E+01, 1.609E+02
 4.501E+01, 3.949E+01, 2.396E+02
 6.004E+01, 4.801E+01, 3.098E+02
 7.501E+01, 6.094E+01, 3.396E+02
 9.003E+01, 7.503E+01, 3.460E+02
 1.050E+02, 8.796E+01, 3.415E+02
 1.200E+02, 9.913E+01, 3.371E+02
 1.350E+02, 1.090E+02, 3.326E+02
 1.500E+02, 1.179E+02, 3.281E+02
 1.650E+02, 1.260E+02, 3.251E+02
 1.800E+02, 1.336E+02, 3.250E+02
 1.950E+02, 1.411E+02, 3.250E+02
 2.100E+02, 1.484E+02, 3.250E+02
 2.250E+02, 1.554E+02, 3.250E+02
 2.400E+02, 1.622E+02, 3.250E+02
 2.550E+02, 1.688E+02, 3.250E+02
 2.700E+02, 1.751E+02, 3.250E+02
 2.850E+02, 1.811E+02, 3.250E+02
 3.000E+02, 1.869E+02, 3.250E+02
 3.150E+02, 1.924E+02, 3.250E+02
 3.300E+02, 1.978E+02, 3.250E+02
 3.450E+02, 2.029E+02, 3.250E+02
 3.600E+02, 2.078E+02, 3.250E+02
 3.750E+02, 2.124E+02, 3.250E+02
 3.900E+02, 2.168E+02, 3.250E+02
 4.050E+02, 2.210E+02, 3.250E+02
 4.200E+02, 2.250E+02, 3.250E+02
 4.350E+02, 2.288E+02, 3.250E+02
 4.500E+02, 2.324E+02, 3.250E+02
 4.650E+02, 2.358E+02, 3.250E+02
 4.800E+02, 2.390E+02, 3.250E+02
 4.950E+02, 2.421E+02, 3.250E+02
 5.100E+02, 2.451E+02, 3.250E+02
 5.250E+02, 2.479E+02, 3.250E+02
 5.400E+02, 2.505E+02, 3.250E+02
 5.550E+02, 2.531E+02, 3.250E+02
 5.700E+02, 2.555E+02, 3.250E+02
 5.850E+02, 2.577E+02, 3.250E+02
 6.000E+02, 2.598E+02, 3.250E+02
 6.150E+02, 2.618E+02, 3.250E+02
 6.300E+02, 2.637E+02, 3.250E+02
 6.450E+02, 2.654E+02, 3.250E+02
 6.600E+02, 2.671E+02, 3.250E+02
 6.750E+02, 2.687E+02, 3.250E+02
 6.900E+02, 2.702E+02, 3.250E+02
 7.050E+02, 2.717E+02, 3.250E+02
 7.200E+02, 2.730E+02, 3.250E+02
 7.350E+02, 2.743E+02, 3.250E+02
 7.500E+02, 2.755E+02, 3.250E+02
 7.650E+02, 2.767E+02, 3.250E+02
 7.800E+02, 2.778E+02, 3.250E+02
 7.950E+02, 2.788E+02, 3.250E+02
 8.100E+02, 2.798E+02, 3.250E+02
 8.250E+02, 2.807E+02, 3.250E+02
 8.400E+02, 2.815E+02, 3.250E+02
 8.550E+02, 2.823E+02, 3.250E+02
 8.700E+02, 2.831E+02, 3.250E+02
 8.850E+02, 2.838E+02, 3.250E+02
 9.000E+02, 2.845E+02, 3.250E+02
