s,C,C,C
Time,"Cable Temp","Shroud Temp","Conduit"
 0.000E+00, 3.100E+01, 3.100E+01, 3.100E+01
 1.508E+01, 3.100E+01, 7.169E+01, 3.106E+01
 3.001E+01, 3.102E+01, 1.516E+02, 3.170E+01
 4.505E+01, 3.112E+01, 2.318E+02, 3.354E+01
 6.003E+01, 3.135E+01, 3.074E+02, 3.725E+01
 7.502E+01, 3.164E+01, 3.250E+02, 4.249E+01
 9.000E+01, 3.213E+01, 3.250E+02, 4.777E+01
 1.050E+02, 3.265E+01, 3.250E+02, 5.301E+01
 1.200E+02, 3.341E+01, 3.250E+02, 5.815E+01
 1.350E+02, 3.413E+01, 3.250E+02, 6.324E+01
 1.500E+02, 3.491E+01, 3.250E+02, 6.824E+01
 1.650E+02, 3.590E+01, 3.250E+02, 7.313E+01
 1.800E+02, 3.681E+01, 3.250E+02, 7.795E+01
 1.950E+02, 3.753E+01, 3.250E+02, 8.269E+01
 2.100E+02, 3.837E+01, 3.250E+02, 8.735E+01
 2.250E+02, 3.975E+01, 3.250E+02, 9.198E+01
 2.400E+02, 4.115E+01, 3.250E+02, 9.650E+01
 2.550E+02, 4.247E+01, 3.250E+02, 1.009E+02
 2.700E+02, 4.394E+01, 3.250E+02, 1.053E+02
 2.850E+02, 4.540E+01, 3.250E+02, 1.096E+02
 3.000E+02, 4.663E+01, 3.250E+02, 1.137E+02
 3.150E+02, 4.795E+01, 3.250E+02, 1.179E+02
 3.300E+02, 4.943E+01, 3.250E+02, 1.219E+02
 3.450E+02, 5.102E+01, 3.250E+02, 1.259E+02
 3.600E+02, 5.274E+01, 3.250E+02, 1.298E+02
 3.750E+02, 5.436E+01, 3.250E+02, 1.336E+02
 3.900E+02, 5.589E+01, 3.250E+02, 1.373E+02
 4.050E+02, 5.767E+01, 3.250E+02, 1.410E+02
 4.200E+02, 5.949E+01, 3.250E+02, 1.446E+02
 4.350E+02, 6.128E+01, 3.250E+02, 1.481E+02
 4.500E+02, 6.334E+01, 3.250E+02, 1.516E+02
 4.650E+02, 6.516E+01, 3.250E+02, 1.550E+02
 4.800E+02, 6.692E+01, 3.250E+02, 1.583E+02
 4.950E+02, 6.894E+01, 3.250E+02, 1.616E+02
 5.100E+02, 7.096E+01, 3.250E+02, 1.648E+02
 5.250E+02, 7.302E+01, 3.250E+02, 1.680E+02
 5.400E+02, 7.508E+01, 3.250E+02, 1.711E+02
 5.550E+02, 7.730E+01, 3.250E+02, 1.741E+02
 5.700E+02, 7.957E+01, 3.250E+02, 1.771E+02
 5.850E+02, 8.181E+01, 3.250E+02, 1.800E+02
 6.000E+02, 8.402E+01, 3.250E+02, 1.829E+02
 6.150E+02, 8.650E+01, 3.250E+02, 1.857E+02
 6.300E+02, 8.907E+01, 3.250E+02, 1.884E+02
 6.450E+02, 9.151E+01, 3.250E+02, 1.910E+02
 6.600E+02, 9.397E+01, 3.250E+02, 1.936E+02
 6.750E+02, 9.642E+01, 3.250E+02, 1.962E+02
 6.900E+02, 9.889E+01, 3.250E+02, 1.987E+02
 7.050E+02, 1.014E+02, 3.250E+02, 2.011E+02
 7.200E+02, 1.038E+02, 3.250E+02, 2.035E+02
 7.350E+02, 1.063E+02, 3.250E+02, 2.057E+02
 7.500E+02, 1.089E+02, 3.250E+02, 2.080E+02
 7.650E+02, 1.116E+02, 3.250E+02, 2.102E+02
 7.800E+02, 1.141E+02, 3.250E+02, 2.123E+02
 7.950E+02, 1.166E+02, 3.250E+02, 2.144E+02
 8.100E+02, 1.191E+02, 3.250E+02, 2.165E+02
 8.250E+02, 1.216E+02, 3.250E+02, 2.185E+02
 8.400E+02, 1.241E+02, 3.250E+02, 2.204E+02
 8.550E+02, 1.267E+02, 3.250E+02, 2.222E+02
 8.700E+02, 1.293E+02, 3.250E+02, 2.241E+02
 8.850E+02, 1.319E+02, 3.250E+02, 2.259E+02
 9.000E+02, 1.345E+02, 3.250E+02, 2.277E+02
 9.150E+02, 1.370E+02, 3.250E+02, 2.294E+02
 9.300E+02, 1.395E+02, 3.250E+02, 2.311E+02
 9.450E+02, 1.420E+02, 3.250E+02, 2.328E+02
 9.600E+02, 1.445E+02, 3.250E+02, 2.344E+02
 9.750E+02, 1.470E+02, 3.250E+02, 2.359E+02
 9.900E+02, 1.495E+02, 3.250E+02, 2.375E+02
 1.005E+03, 1.520E+02, 3.250E+02, 2.390E+02
 1.020E+03, 1.545E+02, 3.250E+02, 2.404E+02
 1.035E+03, 1.570E+02, 3.250E+02, 2.418E+02
 1.050E+03, 1.594E+02, 3.250E+02, 2.432E+02
 1.065E+03, 1.619E+02, 3.250E+02, 2.446E+02
 1.080E+03, 1.642E+02, 3.250E+02, 2.459E+02
 1.095E+03, 1.664E+02, 3.250E+02, 2.470E+02
 1.110E+03, 1.688E+02, 3.250E+02, 2.482E+02
 1.125E+03, 1.711E+02, 3.250E+02, 2.494E+02
 1.140E+03, 1.735E+02, 3.250E+02, 2.506E+02
 1.155E+03, 1.758E+02, 3.250E+02, 2.517E+02
 1.170E+03, 1.780E+02, 3.250E+02, 2.528E+02
 1.185E+03, 1.803E+02, 3.250E+02, 2.539E+02
 1.200E+03, 1.826E+02, 3.250E+02, 2.550E+02
 1.215E+03, 1.847E+02, 3.250E+02, 2.559E+02
 1.230E+03, 1.866E+02, 3.250E+02, 2.568E+02
 1.245E+03, 1.888E+02, 3.250E+02, 2.577E+02
 1.260E+03, 1.909E+02, 3.250E+02, 2.587E+02
 1.275E+03, 1.931E+02, 3.250E+02, 2.596E+02
 1.290E+03, 1.951E+02, 3.250E+02, 2.606E+02
 1.305E+03, 1.972E+02, 3.250E+02, 2.615E+02
 1.320E+03, 1.991E+02, 3.250E+02, 2.623E+02
 1.335E+03, 2.009E+02, 3.250E+02, 2.631E+02
 1.350E+03, 2.029E+02, 3.250E+02, 2.639E+02
 1.365E+03, 2.049E+02, 3.250E+02, 2.648E+02
 1.380E+03, 2.067E+02, 3.250E+02, 2.656E+02
 1.395E+03, 2.086E+02, 3.250E+02, 2.663E+02
 1.410E+03, 2.104E+02, 3.250E+02, 2.671E+02
 1.425E+03, 2.121E+02, 3.250E+02, 2.677E+02
 1.440E+03, 2.138E+02, 3.250E+02, 2.684E+02
 1.455E+03, 2.155E+02, 3.250E+02, 2.690E+02
 1.470E+03, 2.171E+02, 3.250E+02, 2.696E+02
 1.485E+03, 2.186E+02, 3.250E+02, 2.702E+02
 1.500E+03, 2.201E+02, 3.250E+02, 2.708E+02
 1.515E+03, 2.217E+02, 3.250E+02, 2.714E+02
 1.530E+03, 2.231E+02, 3.250E+02, 2.719E+02
 1.545E+03, 2.247E+02, 3.250E+02, 2.726E+02
 1.560E+03, 2.263E+02, 3.250E+02, 2.731E+02
 1.575E+03, 2.276E+02, 3.250E+02, 2.736E+02
 1.590E+03, 2.289E+02, 3.250E+02, 2.741E+02
 1.605E+03, 2.302E+02, 3.250E+02, 2.745E+02
 1.620E+03, 2.316E+02, 3.250E+02, 2.750E+02
 1.635E+03, 2.330E+02, 3.250E+02, 2.755E+02
 1.650E+03, 2.344E+02, 3.250E+02, 2.760E+02
 1.665E+03, 2.354E+02, 3.250E+02, 2.763E+02
 1.680E+03, 2.365E+02, 3.250E+02, 2.767E+02
 1.695E+03, 2.378E+02, 3.250E+02, 2.771E+02
 1.710E+03, 2.392E+02, 3.250E+02, 2.776E+02
 1.725E+03, 2.405E+02, 3.250E+02, 2.781E+02
 1.740E+03, 2.418E+02, 3.250E+02, 2.786E+02
 1.755E+03, 2.427E+02, 3.250E+02, 2.790E+02
 1.770E+03, 2.439E+02, 3.250E+02, 2.794E+02
 1.785E+03, 2.451E+02, 3.250E+02, 2.798E+02
 1.800E+03, 2.461E+02, 3.250E+02, 2.802E+02
 1.815E+03, 2.472E+02, 3.250E+02, 2.806E+02
 1.830E+03, 2.483E+02, 3.250E+02, 2.810E+02
 1.845E+03, 2.492E+02, 3.250E+02, 2.813E+02
 1.860E+03, 2.500E+02, 3.250E+02, 2.816E+02
 1.875E+03, 2.512E+02, 3.250E+02, 2.820E+02
 1.890E+03, 2.518E+02, 3.250E+02, 2.823E+02
 1.905E+03, 2.526E+02, 3.250E+02, 2.825E+02
 1.920E+03, 2.531E+02, 3.250E+02, 2.827E+02
 1.935E+03, 2.539E+02, 3.250E+02, 2.829E+02
 1.950E+03, 2.550E+02, 3.250E+02, 2.832E+02
 1.965E+03, 2.559E+02, 3.250E+02, 2.836E+02
 1.980E+03, 2.567E+02, 3.250E+02, 2.839E+02
 1.995E+03, 2.573E+02, 3.250E+02, 2.841E+02
 2.010E+03, 2.577E+02, 3.250E+02, 2.842E+02
 2.025E+03, 2.585E+02, 3.250E+02, 2.845E+02
 2.040E+03, 2.592E+02, 3.250E+02, 2.847E+02
 2.055E+03, 2.598E+02, 3.250E+02, 2.848E+02
 2.070E+03, 2.606E+02, 3.250E+02, 2.851E+02
 2.085E+03, 2.616E+02, 3.250E+02, 2.854E+02
 2.100E+03, 2.625E+02, 3.250E+02, 2.857E+02
 2.115E+03, 2.632E+02, 3.250E+02, 2.860E+02
 2.130E+03, 2.637E+02, 3.250E+02, 2.862E+02
 2.145E+03, 2.642E+02, 3.250E+02, 2.863E+02
 2.160E+03, 2.649E+02, 3.250E+02, 2.866E+02
 2.175E+03, 2.654E+02, 3.250E+02, 2.867E+02
 2.190E+03, 2.662E+02, 3.250E+02, 2.869E+02
 2.205E+03, 2.666E+02, 3.250E+02, 2.871E+02
 2.220E+03, 2.673E+02, 3.250E+02, 2.873E+02
 2.235E+03, 2.680E+02, 3.250E+02, 2.875E+02
 2.250E+03, 2.687E+02, 3.250E+02, 2.877E+02
 2.265E+03, 2.691E+02, 3.250E+02, 2.879E+02
 2.280E+03, 2.692E+02, 3.250E+02, 2.880E+02
 2.295E+03, 2.697E+02, 3.250E+02, 2.881E+02
 2.310E+03, 2.699E+02, 3.250E+02, 2.881E+02
 2.325E+03, 2.699E+02, 3.250E+02, 2.882E+02
 2.340E+03, 2.704E+02, 3.250E+02, 2.883E+02
 2.355E+03, 2.707E+02, 3.250E+02, 2.884E+02
 2.370E+03, 2.714E+02, 3.250E+02, 2.886E+02
 2.385E+03, 2.721E+02, 3.250E+02, 2.888E+02
 2.400E+03, 2.728E+02, 3.250E+02, 2.890E+02
 2.415E+03, 2.734E+02, 3.250E+02, 2.892E+02
 2.430E+03, 2.738E+02, 3.250E+02, 2.894E+02
 2.445E+03, 2.739E+02, 3.250E+02, 2.894E+02
 2.460E+03, 2.744E+02, 3.250E+02, 2.896E+02
 2.475E+03, 2.745E+02, 3.250E+02, 2.897E+02
 2.490E+03, 2.748E+02, 3.250E+02, 2.897E+02
 2.505E+03, 2.754E+02, 3.250E+02, 2.899E+02
 2.520E+03, 2.759E+02, 3.250E+02, 2.901E+02
 2.535E+03, 2.762E+02, 3.250E+02, 2.902E+02
 2.550E+03, 2.767E+02, 3.250E+02, 2.904E+02
 2.565E+03, 2.766E+02, 3.250E+02, 2.904E+02
 2.580E+03, 2.766E+02, 3.250E+02, 2.904E+02
 2.595E+03, 2.772E+02, 3.250E+02, 2.906E+02
 2.610E+03, 2.777E+02, 3.250E+02, 2.907E+02
 2.625E+03, 2.774E+02, 3.250E+02, 2.907E+02
 2.640E+03, 2.779E+02, 3.250E+02, 2.908E+02
 2.655E+03, 2.783E+02, 3.250E+02, 2.910E+02
 2.670E+03, 2.787E+02, 3.250E+02, 2.911E+02
 2.685E+03, 2.786E+02, 3.250E+02, 2.911E+02
 2.700E+03, 2.791E+02, 3.250E+02, 2.913E+02
 2.715E+03, 2.796E+02, 3.250E+02, 2.915E+02
 2.730E+03, 2.800E+02, 3.250E+02, 2.916E+02
 2.745E+03, 2.801E+02, 3.250E+02, 2.917E+02
 2.760E+03, 2.804E+02, 3.250E+02, 2.918E+02
 2.775E+03, 2.802E+02, 3.250E+02, 2.918E+02
 2.790E+03, 2.804E+02, 3.250E+02, 2.918E+02
 2.805E+03, 2.807E+02, 3.250E+02, 2.920E+02
 2.820E+03, 2.809E+02, 3.250E+02, 2.920E+02
 2.835E+03, 2.813E+02, 3.250E+02, 2.921E+02
 2.850E+03, 2.816E+02, 3.250E+02, 2.923E+02
 2.865E+03, 2.820E+02, 3.250E+02, 2.924E+02
 2.880E+03, 2.818E+02, 3.250E+02, 2.924E+02
 2.895E+03, 2.819E+02, 3.250E+02, 2.924E+02
 2.910E+03, 2.822E+02, 3.250E+02, 2.925E+02
 2.925E+03, 2.817E+02, 3.250E+02, 2.924E+02
 2.940E+03, 2.814E+02, 3.250E+02, 2.923E+02
 2.955E+03, 2.817E+02, 3.250E+02, 2.923E+02
 2.970E+03, 2.817E+02, 3.250E+02, 2.923E+02
 2.985E+03, 2.820E+02, 3.250E+02, 2.924E+02
 3.000E+03, 2.822E+02, 3.250E+02, 2.924E+02
 3.015E+03, 2.822E+02, 3.250E+02, 2.923E+02
 3.030E+03, 2.824E+02, 3.250E+02, 2.923E+02
 3.045E+03, 2.829E+02, 3.250E+02, 2.924E+02
 3.060E+03, 2.833E+02, 3.250E+02, 2.925E+02
 3.075E+03, 2.837E+02, 3.250E+02, 2.927E+02
 3.090E+03, 2.833E+02, 3.250E+02, 2.926E+02
 3.105E+03, 2.827E+02, 3.250E+02, 2.924E+02
 3.120E+03, 2.832E+02, 3.250E+02, 2.925E+02
 3.135E+03, 2.834E+02, 3.250E+02, 2.925E+02
 3.150E+03, 2.836E+02, 3.250E+02, 2.926E+02
 3.165E+03, 2.838E+02, 3.250E+02, 2.926E+02
 3.180E+03, 2.839E+02, 3.250E+02, 2.926E+02
 3.195E+03, 2.842E+02, 3.250E+02, 2.927E+02
 3.210E+03, 2.845E+02, 3.250E+02, 2.928E+02
 3.225E+03, 2.845E+02, 3.250E+02, 2.929E+02
 3.240E+03, 2.843E+02, 3.250E+02, 2.928E+02
 3.255E+03, 2.847E+02, 3.250E+02, 2.930E+02
 3.270E+03, 2.843E+02, 3.250E+02, 2.929E+02
 3.285E+03, 2.848E+02, 3.250E+02, 2.930E+02
 3.300E+03, 2.846E+02, 3.250E+02, 2.930E+02
 3.315E+03, 2.841E+02, 3.250E+02, 2.929E+02
 3.330E+03, 2.840E+02, 3.250E+02, 2.928E+02
 3.345E+03, 2.840E+02, 3.250E+02, 2.928E+02
 3.360E+03, 2.844E+02, 3.250E+02, 2.928E+02
 3.375E+03, 2.843E+02, 3.139E+02, 2.927E+02
 3.390E+03, 2.842E+02, 2.919E+02, 2.919E+02
 3.405E+03, 2.843E+02, 2.698E+02, 2.906E+02
 3.420E+03, 2.839E+02, 2.478E+02, 2.887E+02
 3.435E+03, 2.836E+02, 2.257E+02, 2.863E+02
 3.450E+03, 2.825E+02, 2.037E+02, 2.833E+02
 3.465E+03, 2.813E+02, 1.829E+02, 2.801E+02
 3.480E+03, 2.802E+02, 1.780E+02, 2.768E+02
 3.495E+03, 2.797E+02, 1.780E+02, 2.736E+02
 3.510E+03, 2.785E+02, 1.780E+02, 2.706E+02
 3.525E+03, 2.769E+02, 1.780E+02, 2.675E+02
 3.540E+03, 2.758E+02, 1.780E+02, 2.647E+02
 3.555E+03, 2.751E+02, 1.780E+02, 2.620E+02
 3.570E+03, 2.745E+02, 1.780E+02, 2.595E+02
 3.585E+03, 2.731E+02, 1.780E+02, 2.570E+02
 3.600E+03, 2.724E+02, 1.780E+02, 2.546E+02
