s,C,C
Time,"Cable Temp","Shroud Temp"
 0.000E+00, 2.400E+01, 2.400E+01
 1.503E+01, 2.401E+01, 7.349E+01
 3.005E+01, 2.433E+01, 1.710E+02
 4.501E+01, 2.594E+01, 2.687E+02
 6.000E+01, 3.017E+01, 3.662E+02
 7.503E+01, 3.880E+01, 4.584E+02
 9.003E+01, 5.332E+01, 4.800E+02
 1.050E+02, 7.112E+01, 4.800E+02
 1.200E+02, 8.890E+01, 4.800E+02
 1.350E+02, 1.057E+02, 4.800E+02
 1.500E+02, 1.212E+02, 4.800E+02
 1.650E+02, 1.358E+02, 4.800E+02
 1.800E+02, 1.493E+02, 4.800E+02
 1.950E+02, 1.621E+02, 4.800E+02
 2.100E+02, 1.740E+02, 4.800E+02
 2.250E+02, 1.853E+02, 4.800E+02
 2.400E+02, 1.959E+02, 4.800E+02
 2.550E+02, 2.060E+02, 4.800E+02
 2.700E+02, 2.156E+02, 4.800E+02
 2.850E+02, 2.248E+02, 4.800E+02
 3.000E+02, 2.335E+02, 4.800E+02
 3.150E+02, 2.418E+02, 4.800E+02
 3.300E+02, 2.498E+02, 4.800E+02
 3.450E+02, 2.574E+02, 4.800E+02
 3.600E+02, 2.648E+02, 4.800E+02
 3.750E+02, 2.718E+02, 4.800E+02
 3.900E+02, 2.786E+02, 4.800E+02
 4.050E+02, 2.851E+02, 4.800E+02
 4.200E+02, 2.914E+02, 4.800E+02
 4.350E+02, 2.974E+02, 4.800E+02
 4.500E+02, 3.032E+02, 4.800E+02
 4.650E+02, 3.088E+02, 4.800E+02
 4.800E+02, 3.141E+02, 4.800E+02
 4.950E+02, 3.193E+02, 4.800E+02
 5.100E+02, 3.242E+02, 4.800E+02
 5.250E+02, 3.290E+02, 4.800E+02
 5.400E+02, 3.336E+02, 4.800E+02
 5.550E+02, 3.380E+02, 4.800E+02
 5.700E+02, 3.423E+02, 4.800E+02
 5.850E+02, 3.464E+02, 4.800E+02
 6.000E+02, 3.504E+02, 4.800E+02
 6.150E+02, 3.542E+02, 4.800E+02
 6.300E+02, 3.579E+02, 4.800E+02
 6.450E+02, 3.614E+02, 4.800E+02
 6.600E+02, 3.649E+02, 4.800E+02
 6.750E+02, 3.681E+02, 4.800E+02
 6.900E+02, 3.713E+02, 4.784E+02
 7.050E+02, 3.742E+02, 4.716E+02
 7.200E+02, 3.766E+02, 4.645E+02
 7.350E+02, 3.784E+02, 4.573E+02
 7.500E+02, 3.796E+02, 4.502E+02
 7.650E+02, 3.803E+02, 4.430E+02
 7.800E+02, 3.807E+02, 4.359E+02
 7.950E+02, 3.807E+02, 4.287E+02
 8.100E+02, 3.803E+02, 4.216E+02
 8.250E+02, 3.797E+02, 4.144E+02
 8.400E+02, 3.788E+02, 4.073E+02
 8.550E+02, 3.777E+02, 4.001E+02
 8.700E+02, 3.764E+02, 3.930E+02
 8.850E+02, 3.749E+02, 3.858E+02
 9.000E+02, 3.733E+02, 3.787E+02
 9.150E+02, 3.714E+02, 3.732E+02
 9.300E+02, 3.695E+02, 3.694E+02
 9.450E+02, 3.676E+02, 3.656E+02
 9.600E+02, 3.658E+02, 3.617E+02
 9.750E+02, 3.640E+02, 3.579E+02
 9.900E+02, 3.622E+02, 3.541E+02
 1.005E+03, 3.603E+02, 3.503E+02
 1.020E+03, 3.585E+02, 3.464E+02
 1.035E+03, 3.566E+02, 3.426E+02
 1.050E+03, 3.547E+02, 3.388E+02
 1.065E+03, 3.527E+02, 3.350E+02
 1.080E+03, 3.508E+02, 3.312E+02
 1.095E+03, 3.489E+02, 3.273E+02
 1.110E+03, 3.469E+02, 3.235E+02
 1.125E+03, 3.449E+02, 3.197E+02
 1.140E+03, 3.428E+02, 3.159E+02
 1.155E+03, 3.408E+02, 3.120E+02
 1.170E+03, 3.386E+02, 3.082E+02
 1.185E+03, 3.365E+02, 3.044E+02
 1.200E+03, 3.343E+02, 3.006E+02
 1.215E+03, 3.322E+02, 2.967E+02
 1.230E+03, 3.300E+02, 2.929E+02
 1.245E+03, 3.278E+02, 2.891E+02
 1.260E+03, 3.256E+02, 2.856E+02
 1.275E+03, 3.233E+02, 2.822E+02
 1.290E+03, 3.211E+02, 2.788E+02
 1.305E+03, 3.189E+02, 2.754E+02
 1.320E+03, 3.167E+02, 2.719E+02
 1.335E+03, 3.144E+02, 2.685E+02
 1.350E+03, 3.121E+02, 2.651E+02
 1.365E+03, 3.099E+02, 2.617E+02
 1.380E+03, 3.076E+02, 2.583E+02
 1.395E+03, 3.054E+02, 2.548E+02
 1.410E+03, 3.031E+02, 2.514E+02
 1.425E+03, 3.008E+02, 2.480E+02
 1.440E+03, 2.986E+02, 2.446E+02
 1.455E+03, 2.963E+02, 2.412E+02
 1.470E+03, 2.940E+02, 2.377E+02
 1.485E+03, 2.918E+02, 2.343E+02
 1.500E+03, 2.895E+02, 2.309E+02
 1.515E+03, 2.872E+02, 2.275E+02
 1.530E+03, 2.850E+02, 2.241E+02
 1.545E+03, 2.827E+02, 2.206E+02
 1.560E+03, 2.804E+02, 2.172E+02
 1.575E+03, 2.782E+02, 2.138E+02
 1.590E+03, 2.760E+02, 2.104E+02
 1.605E+03, 2.737E+02, 2.072E+02
 1.620E+03, 2.714E+02, 2.064E+02
 1.635E+03, 2.692E+02, 2.064E+02
 1.650E+03, 2.671E+02, 2.064E+02
 1.665E+03, 2.651E+02, 2.064E+02
 1.680E+03, 2.631E+02, 2.064E+02
 1.695E+03, 2.612E+02, 2.064E+02
 1.710E+03, 2.594E+02, 2.064E+02
 1.725E+03, 2.576E+02, 2.064E+02
 1.740E+03, 2.559E+02, 2.064E+02
 1.755E+03, 2.542E+02, 2.064E+02
 1.770E+03, 2.526E+02, 2.064E+02
 1.785E+03, 2.510E+02, 2.064E+02
 1.800E+03, 2.495E+02, 2.064E+02
