s,C,C
Time,"Cable Temp","Shroud Temp"
 0.000E+00, 2.400E+01, 2.400E+01
 1.500E+01, 2.401E+01, 6.147E+01
 3.002E+01, 2.427E+01, 1.356E+02
 4.502E+01, 2.541E+01, 2.100E+02
 6.002E+01, 2.808E+01, 2.844E+02
 7.500E+01, 3.305E+01, 3.586E+02
 9.000E+01, 4.130E+01, 4.329E+02
 1.050E+02, 5.385E+01, 4.700E+02
 1.200E+02, 6.950E+01, 4.700E+02
 1.350E+02, 8.535E+01, 4.700E+02
 1.500E+02, 1.001E+02, 4.700E+02
 1.650E+02, 1.138E+02, 4.700E+02
 1.800E+02, 1.265E+02, 4.700E+02
 1.950E+02, 1.381E+02, 4.700E+02
 2.100E+02, 1.489E+02, 4.700E+02
 2.250E+02, 1.590E+02, 4.700E+02
 2.400E+02, 1.686E+02, 4.700E+02
 2.550E+02, 1.775E+02, 4.700E+02
 2.700E+02, 1.859E+02, 4.700E+02
 2.850E+02, 1.942E+02, 4.700E+02
 3.000E+02, 2.021E+02, 4.700E+02
 3.150E+02, 2.095E+02, 4.700E+02
 3.300E+02, 2.168E+02, 4.700E+02
 3.450E+02, 2.236E+02, 4.700E+02
 3.600E+02, 2.301E+02, 4.700E+02
 3.750E+02, 2.362E+02, 4.700E+02
 3.900E+02, 2.418E+02, 4.700E+02
 4.050E+02, 2.473E+02, 4.700E+02
 4.200E+02, 2.528E+02, 4.700E+02
 4.350E+02, 2.583E+02, 4.700E+02
 4.500E+02, 2.636E+02, 4.700E+02
 4.650E+02, 2.686E+02, 4.700E+02
 4.800E+02, 2.733E+02, 4.700E+02
 4.950E+02, 2.779E+02, 4.700E+02
 5.100E+02, 2.824E+02, 4.700E+02
 5.250E+02, 2.869E+02, 4.700E+02
 5.400E+02, 2.911E+02, 4.700E+02
 5.550E+02, 2.949E+02, 4.700E+02
 5.700E+02, 2.986E+02, 4.700E+02
 5.850E+02, 3.020E+02, 4.700E+02
 6.000E+02, 3.055E+02, 4.700E+02
 6.150E+02, 3.090E+02, 4.700E+02
 6.300E+02, 3.122E+02, 4.700E+02
 6.450E+02, 3.154E+02, 4.700E+02
 6.600E+02, 3.188E+02, 4.700E+02
 6.750E+02, 3.220E+02, 4.700E+02
 6.900E+02, 3.248E+02, 4.700E+02
 7.050E+02, 3.276E+02, 4.700E+02
 7.200E+02, 3.303E+02, 4.700E+02
 7.350E+02, 3.329E+02, 4.700E+02
 7.500E+02, 3.352E+02, 4.700E+02
 7.650E+02, 3.377E+02, 4.700E+02
 7.800E+02, 3.401E+02, 4.700E+02
 7.950E+02, 3.424E+02, 4.700E+02
 8.100E+02, 3.446E+02, 4.700E+02
 8.250E+02, 3.466E+02, 4.700E+02
 8.400E+02, 3.486E+02, 4.700E+02
 8.550E+02, 3.505E+02, 4.700E+02
 8.700E+02, 3.525E+02, 4.700E+02
 8.850E+02, 3.542E+02, 4.700E+02
 9.000E+02, 3.560E+02, 4.700E+02
 9.150E+02, 3.575E+02, 4.700E+02
 9.300E+02, 3.589E+02, 4.700E+02
 9.450E+02, 3.605E+02, 4.700E+02
 9.600E+02, 3.619E+02, 4.700E+02
 9.750E+02, 3.631E+02, 4.700E+02
 9.900E+02, 3.645E+02, 4.700E+02
 1.005E+03, 3.659E+02, 4.700E+02
 1.020E+03, 3.675E+02, 4.700E+02
 1.035E+03, 3.688E+02, 4.700E+02
 1.050E+03, 3.697E+02, 4.700E+02
 1.065E+03, 3.706E+02, 4.700E+02
 1.080E+03, 3.717E+02, 4.700E+02
 1.095E+03, 3.726E+02, 4.700E+02
 1.110E+03, 3.731E+02, 4.700E+02
 1.125E+03, 3.739E+02, 4.700E+02
 1.140E+03, 3.750E+02, 4.700E+02
 1.155E+03, 3.762E+02, 4.700E+02
 1.170E+03, 3.771E+02, 4.700E+02
 1.185E+03, 3.782E+02, 4.700E+02
 1.200E+03, 3.791E+02, 4.700E+02
 1.215E+03, 3.800E+02, 4.700E+02
 1.230E+03, 3.808E+02, 4.700E+02
 1.245E+03, 3.816E+02, 4.700E+02
 1.260E+03, 3.826E+02, 4.700E+02
 1.275E+03, 3.831E+02, 4.700E+02
 1.290E+03, 3.838E+02, 4.700E+02
 1.305E+03, 3.845E+02, 4.700E+02
 1.320E+03, 3.851E+02, 4.700E+02
 1.335E+03, 3.854E+02, 4.700E+02
 1.350E+03, 3.859E+02, 4.700E+02
 1.365E+03, 3.866E+02, 4.700E+02
 1.380E+03, 3.874E+02, 4.700E+02
 1.395E+03, 3.879E+02, 4.700E+02
 1.410E+03, 3.882E+02, 4.700E+02
 1.425E+03, 3.882E+02, 4.700E+02
 1.440E+03, 3.883E+02, 4.700E+02
 1.455E+03, 3.885E+02, 4.700E+02
 1.470E+03, 3.888E+02, 4.700E+02
 1.485E+03, 3.888E+02, 4.700E+02
 1.500E+03, 3.890E+02, 4.700E+02
 1.515E+03, 3.891E+02, 4.700E+02
 1.530E+03, 3.892E+02, 4.700E+02
 1.545E+03, 3.897E+02, 4.700E+02
 1.560E+03, 3.902E+02, 4.700E+02
 1.575E+03, 3.905E+02, 4.700E+02
 1.590E+03, 3.908E+02, 4.700E+02
 1.605E+03, 3.913E+02, 4.700E+02
 1.620E+03, 3.919E+02, 4.700E+02
 1.635E+03, 3.921E+02, 4.700E+02
 1.650E+03, 3.922E+02, 4.700E+02
 1.665E+03, 3.923E+02, 4.700E+02
 1.680E+03, 3.923E+02, 4.700E+02
 1.695E+03, 3.919E+02, 4.700E+02
 1.710E+03, 3.917E+02, 4.700E+02
 1.725E+03, 3.918E+02, 4.700E+02
 1.740E+03, 3.920E+02, 4.700E+02
 1.755E+03, 3.922E+02, 4.700E+02
 1.770E+03, 3.922E+02, 4.700E+02
 1.785E+03, 3.922E+02, 4.700E+02
 1.800E+03, 3.924E+02, 4.700E+02
