s,C,C
Time,"Cable Temp","Shroud Temp"
 0.000E+00, 2.000E+01, 2.000E+01
 1.502E+01, 2.015E+01, 6.671E+01
 3.004E+01, 2.230E+01, 1.589E+02
 4.503E+01, 2.884E+01, 2.512E+02
 6.003E+01, 4.166E+01, 3.219E+02
 7.501E+01, 5.594E+01, 3.234E+02
 9.003E+01, 6.722E+01, 3.196E+02
 1.050E+02, 7.647E+01, 3.158E+02
 1.200E+02, 8.433E+01, 3.120E+02
 1.350E+02, 9.117E+01, 3.082E+02
 1.500E+02, 9.714E+01, 3.052E+02
 1.650E+02, 1.026E+02, 3.050E+02
 1.800E+02, 1.079E+02, 3.050E+02
 1.950E+02, 1.131E+02, 3.050E+02
 2.100E+02, 1.180E+02, 3.050E+02
 2.250E+02, 1.228E+02, 3.050E+02
 2.400E+02, 1.274E+02, 3.050E+02
 2.550E+02, 1.318E+02, 3.050E+02
 2.700E+02, 1.362E+02, 3.050E+02
 2.850E+02, 1.404E+02, 3.050E+02
 3.000E+02, 1.446E+02, 3.050E+02
 3.150E+02, 1.486E+02, 3.050E+02
 3.300E+02, 1.524E+02, 3.050E+02
 3.450E+02, 1.562E+02, 3.050E+02
 3.600E+02, 1.597E+02, 3.050E+02
 3.750E+02, 1.632E+02, 3.050E+02
 3.900E+02, 1.667E+02, 3.050E+02
 4.050E+02, 1.701E+02, 3.050E+02
 4.200E+02, 1.733E+02, 3.050E+02
 4.350E+02, 1.764E+02, 3.050E+02
 4.500E+02, 1.796E+02, 3.050E+02
 4.650E+02, 1.827E+02, 3.050E+02
 4.800E+02, 1.857E+02, 3.050E+02
 4.950E+02, 1.887E+02, 3.050E+02
 5.100E+02, 1.915E+02, 3.050E+02
 5.250E+02, 1.940E+02, 3.050E+02
 5.400E+02, 1.966E+02, 3.050E+02
 5.550E+02, 1.992E+02, 3.050E+02
 5.700E+02, 2.016E+02, 3.050E+02
 5.850E+02, 2.041E+02, 3.050E+02
 6.000E+02, 2.064E+02, 3.050E+02
 6.150E+02, 2.087E+02, 3.050E+02
 6.300E+02, 2.109E+02, 3.050E+02
 6.450E+02, 2.131E+02, 3.050E+02
 6.600E+02, 2.149E+02, 3.050E+02
 6.750E+02, 2.170E+02, 3.050E+02
 6.900E+02, 2.189E+02, 3.050E+02
 7.050E+02, 2.208E+02, 3.050E+02
 7.200E+02, 2.222E+02, 3.050E+02
 7.350E+02, 2.241E+02, 3.050E+02
 7.500E+02, 2.260E+02, 3.050E+02
 7.650E+02, 2.277E+02, 3.050E+02
 7.800E+02, 2.293E+02, 3.050E+02
 7.950E+02, 2.309E+02, 3.050E+02
 8.100E+02, 2.323E+02, 3.050E+02
 8.250E+02, 2.336E+02, 3.050E+02
 8.400E+02, 2.349E+02, 3.050E+02
 8.550E+02, 2.362E+02, 3.050E+02
 8.700E+02, 2.373E+02, 3.050E+02
 8.850E+02, 2.387E+02, 3.050E+02
 9.000E+02, 2.400E+02, 3.050E+02
 9.150E+02, 2.412E+02, 3.050E+02
 9.300E+02, 2.424E+02, 3.050E+02
 9.450E+02, 2.436E+02, 3.050E+02
 9.600E+02, 2.446E+02, 3.050E+02
 9.750E+02, 2.455E+02, 3.050E+02
 9.900E+02, 2.467E+02, 3.050E+02
 1.005E+03, 2.476E+02, 3.050E+02
 1.020E+03, 2.485E+02, 3.050E+02
 1.035E+03, 2.494E+02, 3.050E+02
 1.050E+03, 2.504E+02, 3.050E+02
 1.065E+03, 2.513E+02, 3.050E+02
 1.080E+03, 2.520E+02, 3.050E+02
 1.095E+03, 2.527E+02, 3.050E+02
 1.110E+03, 2.534E+02, 3.050E+02
 1.125E+03, 2.540E+02, 3.050E+02
 1.140E+03, 2.547E+02, 3.050E+02
 1.155E+03, 2.555E+02, 3.050E+02
 1.170E+03, 2.562E+02, 3.050E+02
 1.185E+03, 2.569E+02, 3.050E+02
 1.200E+03, 2.577E+02, 3.050E+02
 1.215E+03, 2.582E+02, 3.050E+02
 1.230E+03, 2.587E+02, 3.050E+02
 1.245E+03, 2.594E+02, 3.050E+02
 1.260E+03, 2.599E+02, 3.050E+02
 1.275E+03, 2.604E+02, 3.050E+02
 1.290E+03, 2.610E+02, 3.050E+02
 1.305E+03, 2.615E+02, 3.050E+02
 1.320E+03, 2.620E+02, 3.050E+02
 1.335E+03, 2.623E+02, 3.050E+02
 1.350E+03, 2.627E+02, 3.050E+02
 1.365E+03, 2.632E+02, 3.050E+02
 1.380E+03, 2.637E+02, 3.050E+02
 1.395E+03, 2.639E+02, 3.050E+02
 1.410E+03, 2.644E+02, 3.050E+02
 1.425E+03, 2.650E+02, 3.050E+02
 1.440E+03, 2.653E+02, 3.050E+02
 1.455E+03, 2.657E+02, 3.050E+02
 1.470E+03, 2.659E+02, 3.050E+02
 1.485E+03, 2.663E+02, 3.050E+02
 1.500E+03, 2.665E+02, 3.050E+02
 1.515E+03, 2.667E+02, 3.050E+02
 1.530E+03, 2.669E+02, 3.050E+02
 1.545E+03, 2.673E+02, 3.050E+02
 1.560E+03, 2.676E+02, 3.050E+02
 1.575E+03, 2.681E+02, 3.050E+02
 1.590E+03, 2.684E+02, 3.050E+02
 1.605E+03, 2.687E+02, 3.050E+02
 1.620E+03, 2.690E+02, 3.050E+02
 1.635E+03, 2.693E+02, 3.050E+02
 1.650E+03, 2.695E+02, 3.050E+02
 1.665E+03, 2.696E+02, 3.050E+02
 1.680E+03, 2.696E+02, 3.050E+02
 1.695E+03, 2.699E+02, 3.050E+02
 1.710E+03, 2.700E+02, 3.050E+02
 1.725E+03, 2.703E+02, 3.050E+02
 1.740E+03, 2.706E+02, 3.050E+02
 1.755E+03, 2.706E+02, 3.050E+02
 1.770E+03, 2.707E+02, 3.050E+02
 1.785E+03, 2.707E+02, 3.050E+02
 1.800E+03, 2.709E+02, 3.050E+02
 1.815E+03, 2.710E+02, 3.050E+02
 1.830E+03, 2.708E+02, 3.050E+02
 1.845E+03, 2.711E+02, 3.050E+02
 1.860E+03, 2.715E+02, 3.050E+02
 1.875E+03, 2.717E+02, 3.050E+02
 1.890E+03, 2.718E+02, 3.050E+02
 1.905E+03, 2.718E+02, 3.050E+02
 1.920E+03, 2.720E+02, 3.050E+02
 1.935E+03, 2.722E+02, 3.050E+02
 1.950E+03, 2.723E+02, 3.050E+02
 1.965E+03, 2.725E+02, 3.050E+02
 1.980E+03, 2.725E+02, 3.050E+02
 1.995E+03, 2.726E+02, 3.050E+02
 2.010E+03, 2.728E+02, 3.050E+02
 2.025E+03, 2.730E+02, 3.050E+02
 2.040E+03, 2.731E+02, 3.050E+02
 2.055E+03, 2.732E+02, 3.050E+02
 2.070E+03, 2.734E+02, 3.050E+02
 2.085E+03, 2.734E+02, 3.050E+02
 2.100E+03, 2.734E+02, 3.040E+02
 2.115E+03, 2.732E+02, 2.996E+02
 2.130E+03, 2.726E+02, 2.949E+02
 2.145E+03, 2.717E+02, 2.903E+02
 2.160E+03, 2.707E+02, 2.856E+02
 2.175E+03, 2.696E+02, 2.810E+02
 2.190E+03, 2.680E+02, 2.763E+02
 2.205E+03, 2.666E+02, 2.717E+02
 2.220E+03, 2.649E+02, 2.670E+02
 2.235E+03, 2.633E+02, 2.624E+02
 2.250E+03, 2.616E+02, 2.577E+02
 2.265E+03, 2.598E+02, 2.531E+02
 2.280E+03, 2.578E+02, 2.484E+02
 2.295E+03, 2.560E+02, 2.438E+02
 2.310E+03, 2.540E+02, 2.392E+02
 2.325E+03, 2.519E+02, 2.348E+02
 2.340E+03, 2.500E+02, 2.338E+02
 2.355E+03, 2.483E+02, 2.338E+02
 2.370E+03, 2.467E+02, 2.338E+02
 2.385E+03, 2.451E+02, 2.338E+02
 2.400E+03, 2.438E+02, 2.338E+02
