s,C,C,C
Time,"Cable Temp","Shroud Temp","Conduit"
 0.000E+00, 3.100E+01, 3.100E+01, 3.100E+01
 1.502E+01, 3.100E+01, 6.883E+01, 3.106E+01
 3.001E+01, 3.100E+01, 1.434E+02, 3.163E+01
 4.501E+01, 3.100E+01, 2.180E+02, 3.329E+01
 6.000E+01, 3.104E+01, 2.885E+02, 3.658E+01
 7.504E+01, 3.113E+01, 3.050E+02, 4.119E+01
 9.002E+01, 3.128E+01, 3.050E+02, 4.582E+01
 1.050E+02, 3.149E+01, 3.050E+02, 5.038E+01
 1.200E+02, 3.177E+01, 3.050E+02, 5.487E+01
 1.350E+02, 3.211E+01, 3.050E+02, 5.931E+01
 1.500E+02, 3.252E+01, 3.050E+02, 6.369E+01
 1.650E+02, 3.296E+01, 3.050E+02, 6.803E+01
 1.800E+02, 3.341E+01, 3.050E+02, 7.226E+01
 1.950E+02, 3.388E+01, 3.050E+02, 7.646E+01
 2.100E+02, 3.443E+01, 3.050E+02, 8.057E+01
 2.250E+02, 3.503E+01, 3.050E+02, 8.458E+01
 2.400E+02, 3.567E+01, 3.050E+02, 8.855E+01
 2.550E+02, 3.632E+01, 3.050E+02, 9.248E+01
 2.700E+02, 3.703E+01, 3.050E+02, 9.632E+01
 2.850E+02, 3.778E+01, 3.050E+02, 1.001E+02
 3.000E+02, 3.859E+01, 3.050E+02, 1.038E+02
 3.150E+02, 3.946E+01, 3.050E+02, 1.075E+02
 3.300E+02, 4.037E+01, 3.050E+02, 1.111E+02
 3.450E+02, 4.133E+01, 3.050E+02, 1.146E+02
 3.600E+02, 4.233E+01, 3.050E+02, 1.180E+02
 3.750E+02, 4.335E+01, 3.050E+02, 1.214E+02
 3.900E+02, 4.441E+01, 3.050E+02, 1.247E+02
 4.050E+02, 4.553E+01, 3.050E+02, 1.280E+02
 4.200E+02, 4.669E+01, 3.050E+02, 1.312E+02
 4.350E+02, 4.790E+01, 3.050E+02, 1.344E+02
 4.500E+02, 4.913E+01, 3.050E+02, 1.375E+02
 4.650E+02, 5.040E+01, 3.050E+02, 1.405E+02
 4.800E+02, 5.171E+01, 3.050E+02, 1.435E+02
 4.950E+02, 5.306E+01, 3.050E+02, 1.464E+02
 5.100E+02, 5.445E+01, 3.050E+02, 1.493E+02
 5.250E+02, 5.588E+01, 3.050E+02, 1.522E+02
 5.400E+02, 5.736E+01, 3.050E+02, 1.549E+02
 5.550E+02, 5.887E+01, 3.050E+02, 1.577E+02
 5.700E+02, 6.040E+01, 3.050E+02, 1.603E+02
 5.850E+02, 6.195E+01, 3.050E+02, 1.630E+02
 6.000E+02, 6.355E+01, 3.050E+02, 1.655E+02
 6.150E+02, 6.518E+01, 3.050E+02, 1.681E+02
 6.300E+02, 6.683E+01, 3.050E+02, 1.705E+02
 6.450E+02, 6.851E+01, 3.050E+02, 1.730E+02
 6.600E+02, 7.022E+01, 3.050E+02, 1.754E+02
 6.750E+02, 7.193E+01, 3.050E+02, 1.777E+02
 6.900E+02, 7.368E+01, 3.050E+02, 1.800E+02
 7.050E+02, 7.546E+01, 3.050E+02, 1.822E+02
 7.200E+02, 7.727E+01, 3.050E+02, 1.844E+02
 7.350E+02, 7.911E+01, 3.050E+02, 1.866E+02
 7.500E+02, 8.097E+01, 3.050E+02, 1.887E+02
 7.650E+02, 8.286E+01, 3.050E+02, 1.908E+02
 7.800E+02, 8.474E+01, 3.050E+02, 1.928E+02
 7.950E+02, 8.666E+01, 3.050E+02, 1.948E+02
 8.100E+02, 8.859E+01, 3.050E+02, 1.967E+02
 8.250E+02, 9.053E+01, 3.050E+02, 1.986E+02
 8.400E+02, 9.248E+01, 3.050E+02, 2.004E+02
 8.550E+02, 9.444E+01, 3.050E+02, 2.022E+02
 8.700E+02, 9.642E+01, 3.050E+02, 2.040E+02
 8.850E+02, 9.842E+01, 3.050E+02, 2.057E+02
 9.000E+02, 1.004E+02, 3.050E+02, 2.074E+02
 9.150E+02, 1.024E+02, 3.050E+02, 2.090E+02
 9.300E+02, 1.044E+02, 3.050E+02, 2.106E+02
 9.450E+02, 1.064E+02, 3.050E+02, 2.121E+02
 9.600E+02, 1.085E+02, 3.050E+02, 2.137E+02
 9.750E+02, 1.105E+02, 3.050E+02, 2.152E+02
 9.900E+02, 1.125E+02, 3.050E+02, 2.166E+02
 1.005E+03, 1.145E+02, 3.050E+02, 2.180E+02
 1.020E+03, 1.166E+02, 3.050E+02, 2.193E+02
 1.035E+03, 1.186E+02, 3.050E+02, 2.207E+02
 1.050E+03, 1.206E+02, 3.050E+02, 2.220E+02
 1.065E+03, 1.226E+02, 3.050E+02, 2.233E+02
 1.080E+03, 1.246E+02, 3.050E+02, 2.245E+02
 1.095E+03, 1.266E+02, 3.050E+02, 2.257E+02
 1.110E+03, 1.286E+02, 3.050E+02, 2.268E+02
 1.125E+03, 1.306E+02, 3.050E+02, 2.280E+02
 1.140E+03, 1.327E+02, 3.050E+02, 2.291E+02
 1.155E+03, 1.346E+02, 3.050E+02, 2.302E+02
 1.170E+03, 1.366E+02, 3.050E+02, 2.313E+02
 1.185E+03, 1.386E+02, 3.050E+02, 2.323E+02
 1.200E+03, 1.406E+02, 3.050E+02, 2.334E+02
 1.215E+03, 1.425E+02, 3.050E+02, 2.344E+02
 1.230E+03, 1.445E+02, 3.050E+02, 2.354E+02
 1.245E+03, 1.464E+02, 3.050E+02, 2.363E+02
 1.260E+03, 1.483E+02, 3.050E+02, 2.372E+02
 1.275E+03, 1.502E+02, 3.050E+02, 2.381E+02
 1.290E+03, 1.521E+02, 3.050E+02, 2.390E+02
 1.305E+03, 1.540E+02, 3.050E+02, 2.399E+02
 1.320E+03, 1.559E+02, 3.050E+02, 2.407E+02
 1.335E+03, 1.577E+02, 3.050E+02, 2.415E+02
 1.350E+03, 1.595E+02, 3.050E+02, 2.423E+02
 1.365E+03, 1.614E+02, 3.050E+02, 2.431E+02
 1.380E+03, 1.632E+02, 3.050E+02, 2.439E+02
 1.395E+03, 1.649E+02, 3.050E+02, 2.446E+02
 1.410E+03, 1.667E+02, 3.050E+02, 2.453E+02
 1.425E+03, 1.685E+02, 3.050E+02, 2.460E+02
 1.440E+03, 1.702E+02, 3.050E+02, 2.467E+02
 1.455E+03, 1.719E+02, 3.050E+02, 2.474E+02
 1.470E+03, 1.736E+02, 3.050E+02, 2.480E+02
 1.485E+03, 1.753E+02, 3.050E+02, 2.487E+02
 1.500E+03, 1.770E+02, 3.050E+02, 2.494E+02
 1.515E+03, 1.786E+02, 3.050E+02, 2.500E+02
 1.530E+03, 1.803E+02, 3.050E+02, 2.506E+02
 1.545E+03, 1.819E+02, 3.050E+02, 2.511E+02
 1.560E+03, 1.834E+02, 3.050E+02, 2.516E+02
 1.575E+03, 1.849E+02, 3.050E+02, 2.522E+02
 1.590E+03, 1.865E+02, 3.050E+02, 2.527E+02
 1.605E+03, 1.880E+02, 3.050E+02, 2.532E+02
 1.620E+03, 1.895E+02, 3.050E+02, 2.538E+02
 1.635E+03, 1.910E+02, 3.050E+02, 2.542E+02
 1.650E+03, 1.925E+02, 3.050E+02, 2.547E+02
 1.665E+03, 1.939E+02, 3.050E+02, 2.552E+02
 1.680E+03, 1.954E+02, 3.050E+02, 2.557E+02
 1.695E+03, 1.968E+02, 3.050E+02, 2.562E+02
 1.710E+03, 1.982E+02, 3.050E+02, 2.566E+02
 1.725E+03, 1.995E+02, 3.050E+02, 2.570E+02
 1.740E+03, 2.009E+02, 3.050E+02, 2.575E+02
 1.755E+03, 2.022E+02, 3.050E+02, 2.579E+02
 1.770E+03, 2.035E+02, 3.050E+02, 2.583E+02
 1.785E+03, 2.048E+02, 3.050E+02, 2.587E+02
 1.800E+03, 2.061E+02, 3.050E+02, 2.591E+02
 1.815E+03, 2.073E+02, 3.050E+02, 2.595E+02
 1.830E+03, 2.086E+02, 3.050E+02, 2.599E+02
 1.845E+03, 2.098E+02, 3.050E+02, 2.602E+02
 1.860E+03, 2.110E+02, 3.050E+02, 2.606E+02
 1.875E+03, 2.121E+02, 3.050E+02, 2.610E+02
 1.890E+03, 2.133E+02, 3.049E+02, 2.613E+02
 1.905E+03, 2.144E+02, 3.021E+02, 2.616E+02
 1.920E+03, 2.156E+02, 2.980E+02, 2.618E+02
 1.935E+03, 2.167E+02, 2.939E+02, 2.618E+02
 1.950E+03, 2.178E+02, 2.898E+02, 2.617E+02
 1.965E+03, 2.187E+02, 2.857E+02, 2.615E+02
 1.980E+03, 2.197E+02, 2.816E+02, 2.612E+02
 1.995E+03, 2.207E+02, 2.774E+02, 2.607E+02
 2.010E+03, 2.216E+02, 2.733E+02, 2.602E+02
 2.025E+03, 2.225E+02, 2.692E+02, 2.596E+02
 2.040E+03, 2.234E+02, 2.651E+02, 2.589E+02
 2.055E+03, 2.242E+02, 2.610E+02, 2.582E+02
 2.070E+03, 2.249E+02, 2.569E+02, 2.573E+02
 2.085E+03, 2.256E+02, 2.528E+02, 2.563E+02
 2.100E+03, 2.262E+02, 2.487E+02, 2.553E+02
 2.115E+03, 2.268E+02, 2.446E+02, 2.542E+02
 2.130E+03, 2.274E+02, 2.405E+02, 2.531E+02
 2.145E+03, 2.279E+02, 2.363E+02, 2.519E+02
 2.160E+03, 2.283E+02, 2.322E+02, 2.506E+02
 2.175E+03, 2.287E+02, 2.281E+02, 2.493E+02
 2.190E+03, 2.291E+02, 2.240E+02, 2.480E+02
 2.205E+03, 2.294E+02, 2.199E+02, 2.466E+02
 2.220E+03, 2.297E+02, 2.158E+02, 2.452E+02
 2.235E+03, 2.299E+02, 2.117E+02, 2.438E+02
 2.250E+03, 2.301E+02, 2.076E+02, 2.423E+02
 2.265E+03, 2.302E+02, 2.035E+02, 2.407E+02
 2.280E+03, 2.303E+02, 1.994E+02, 2.392E+02
 2.295E+03, 2.304E+02, 1.952E+02, 2.376E+02
 2.310E+03, 2.304E+02, 1.911E+02, 2.360E+02
 2.325E+03, 2.304E+02, 1.870E+02, 2.344E+02
 2.340E+03, 2.303E+02, 1.829E+02, 2.328E+02
 2.355E+03, 2.302E+02, 1.788E+02, 2.311E+02
 2.370E+03, 2.301E+02, 1.747E+02, 2.294E+02
 2.385E+03, 2.300E+02, 1.706E+02, 2.277E+02
 2.400E+03, 2.298E+02, 1.680E+02, 2.260E+02
 2.415E+03, 2.295E+02, 1.680E+02, 2.244E+02
 2.430E+03, 2.293E+02, 1.680E+02, 2.227E+02
 2.445E+03, 2.289E+02, 1.680E+02, 2.211E+02
 2.460E+03, 2.286E+02, 1.680E+02, 2.196E+02
 2.475E+03, 2.283E+02, 1.680E+02, 2.181E+02
 2.490E+03, 2.279E+02, 1.680E+02, 2.166E+02
 2.505E+03, 2.275E+02, 1.680E+02, 2.152E+02
 2.520E+03, 2.271E+02, 1.680E+02, 2.138E+02
 2.535E+03, 2.267E+02, 1.680E+02, 2.125E+02
 2.550E+03, 2.262E+02, 1.680E+02, 2.112E+02
 2.565E+03, 2.258E+02, 1.680E+02, 2.099E+02
 2.580E+03, 2.253E+02, 1.680E+02, 2.087E+02
 2.595E+03, 2.248E+02, 1.680E+02, 2.075E+02
 2.610E+03, 2.243E+02, 1.680E+02, 2.063E+02
 2.625E+03, 2.238E+02, 1.680E+02, 2.051E+02
 2.640E+03, 2.232E+02, 1.680E+02, 2.040E+02
 2.655E+03, 2.226E+02, 1.680E+02, 2.029E+02
 2.670E+03, 2.221E+02, 1.680E+02, 2.019E+02
 2.685E+03, 2.216E+02, 1.680E+02, 2.009E+02
 2.700E+03, 2.211E+02, 1.680E+02, 1.999E+02
 2.715E+03, 2.205E+02, 1.680E+02, 1.989E+02
 2.730E+03, 2.200E+02, 1.680E+02, 1.980E+02
 2.745E+03, 2.194E+02, 1.680E+02, 1.971E+02
 2.760E+03, 2.188E+02, 1.680E+02, 1.962E+02
 2.775E+03, 2.182E+02, 1.680E+02, 1.953E+02
 2.790E+03, 2.176E+02, 1.680E+02, 1.944E+02
 2.805E+03, 2.170E+02, 1.680E+02, 1.936E+02
 2.820E+03, 2.165E+02, 1.680E+02, 1.928E+02
 2.835E+03, 2.159E+02, 1.680E+02, 1.920E+02
 2.850E+03, 2.154E+02, 1.680E+02, 1.912E+02
 2.865E+03, 2.148E+02, 1.680E+02, 1.904E+02
 2.880E+03, 2.142E+02, 1.680E+02, 1.897E+02
 2.895E+03, 2.136E+02, 1.680E+02, 1.890E+02
 2.910E+03, 2.131E+02, 1.680E+02, 1.883E+02
 2.925E+03, 2.125E+02, 1.680E+02, 1.876E+02
 2.940E+03, 2.119E+02, 1.680E+02, 1.869E+02
 2.955E+03, 2.113E+02, 1.680E+02, 1.862E+02
 2.970E+03, 2.107E+02, 1.680E+02, 1.855E+02
 2.985E+03, 2.101E+02, 1.680E+02, 1.849E+02
 3.000E+03, 2.096E+02, 1.680E+02, 1.842E+02
 3.015E+03, 2.090E+02, 1.680E+02, 1.836E+02
 3.030E+03, 2.084E+02, 1.680E+02, 1.830E+02
 3.045E+03, 2.078E+02, 1.680E+02, 1.824E+02
 3.060E+03, 2.073E+02, 1.680E+02, 1.819E+02
 3.075E+03, 2.067E+02, 1.680E+02, 1.813E+02
 3.090E+03, 2.061E+02, 1.680E+02, 1.808E+02
 3.105E+03, 2.056E+02, 1.680E+02, 1.802E+02
 3.120E+03, 2.050E+02, 1.680E+02, 1.797E+02
 3.135E+03, 2.045E+02, 1.680E+02, 1.792E+02
 3.150E+03, 2.039E+02, 1.680E+02, 1.787E+02
 3.165E+03, 2.033E+02, 1.680E+02, 1.782E+02
 3.180E+03, 2.027E+02, 1.680E+02, 1.777E+02
 3.195E+03, 2.022E+02, 1.680E+02, 1.772E+02
 3.210E+03, 2.016E+02, 1.680E+02, 1.767E+02
 3.225E+03, 2.010E+02, 1.680E+02, 1.762E+02
 3.240E+03, 2.004E+02, 1.680E+02, 1.758E+02
 3.255E+03, 1.999E+02, 1.680E+02, 1.753E+02
 3.270E+03, 1.993E+02, 1.680E+02, 1.749E+02
 3.285E+03, 1.988E+02, 1.680E+02, 1.744E+02
 3.300E+03, 1.982E+02, 1.680E+02, 1.740E+02
 3.315E+03, 1.977E+02, 1.680E+02, 1.736E+02
 3.330E+03, 1.971E+02, 1.680E+02, 1.732E+02
 3.345E+03, 1.966E+02, 1.680E+02, 1.727E+02
 3.360E+03, 1.960E+02, 1.680E+02, 1.724E+02
 3.375E+03, 1.955E+02, 1.680E+02, 1.720E+02
 3.390E+03, 1.950E+02, 1.680E+02, 1.716E+02
 3.405E+03, 1.945E+02, 1.680E+02, 1.712E+02
 3.420E+03, 1.940E+02, 1.680E+02, 1.708E+02
 3.435E+03, 1.935E+02, 1.680E+02, 1.705E+02
 3.450E+03, 1.930E+02, 1.680E+02, 1.701E+02
 3.465E+03, 1.924E+02, 1.680E+02, 1.697E+02
 3.480E+03, 1.919E+02, 1.680E+02, 1.694E+02
 3.495E+03, 1.914E+02, 1.680E+02, 1.690E+02
 3.510E+03, 1.909E+02, 1.680E+02, 1.687E+02
 3.525E+03, 1.905E+02, 1.680E+02, 1.684E+02
 3.540E+03, 1.899E+02, 1.680E+02, 1.680E+02
 3.555E+03, 1.894E+02, 1.680E+02, 1.677E+02
 3.570E+03, 1.890E+02, 1.680E+02, 1.674E+02
 3.585E+03, 1.885E+02, 1.680E+02, 1.671E+02
 3.600E+03, 1.880E+02, 1.680E+02, 1.668E+02
