s,C,C
Time,"Cable Temp","Shroud Temp"
 0.000E+00, 2.400E+01, 2.400E+01
 1.509E+01, 2.401E+01, 7.366E+01
 3.007E+01, 2.437E+01, 1.713E+02
 4.504E+01, 2.622E+01, 2.689E+02
 6.002E+01, 3.093E+01, 3.664E+02
 7.502E+01, 4.026E+01, 4.585E+02
 9.001E+01, 5.564E+01, 4.800E+02
 1.050E+02, 7.420E+01, 4.800E+02
 1.200E+02, 9.245E+01, 4.800E+02
 1.350E+02, 1.094E+02, 4.800E+02
 1.500E+02, 1.249E+02, 4.800E+02
 1.650E+02, 1.392E+02, 4.800E+02
 1.800E+02, 1.524E+02, 4.800E+02
 1.950E+02, 1.646E+02, 4.800E+02
 2.100E+02, 1.760E+02, 4.800E+02
 2.250E+02, 1.866E+02, 4.800E+02
 2.400E+02, 1.967E+02, 4.800E+02
 2.550E+02, 2.061E+02, 4.800E+02
 2.700E+02, 2.150E+02, 4.800E+02
 2.850E+02, 2.234E+02, 4.800E+02
 3.000E+02, 2.314E+02, 4.800E+02
 3.150E+02, 2.390E+02, 4.800E+02
 3.300E+02, 2.462E+02, 4.800E+02
 3.450E+02, 2.532E+02, 4.800E+02
 3.600E+02, 2.601E+02, 4.800E+02
 3.750E+02, 2.666E+02, 4.800E+02
 3.900E+02, 2.730E+02, 4.800E+02
 4.050E+02, 2.791E+02, 4.800E+02
 4.200E+02, 2.848E+02, 4.800E+02
 4.350E+02, 2.901E+02, 4.800E+02
 4.500E+02, 2.953E+02, 4.800E+02
 4.650E+02, 3.005E+02, 4.800E+02
 4.800E+02, 3.055E+02, 4.800E+02
 4.950E+02, 3.102E+02, 4.800E+02
 5.100E+02, 3.147E+02, 4.800E+02
 5.250E+02, 3.190E+02, 4.800E+02
 5.400E+02, 3.231E+02, 4.800E+02
 5.550E+02, 3.271E+02, 4.800E+02
 5.700E+02, 3.310E+02, 4.800E+02
 5.850E+02, 3.347E+02, 4.800E+02
 6.000E+02, 3.384E+02, 4.800E+02
 6.150E+02, 3.420E+02, 4.800E+02
 6.300E+02, 3.454E+02, 4.800E+02
 6.450E+02, 3.486E+02, 4.800E+02
 6.600E+02, 3.516E+02, 4.800E+02
 6.750E+02, 3.547E+02, 4.800E+02
 6.900E+02, 3.576E+02, 4.800E+02
 7.050E+02, 3.603E+02, 4.800E+02
 7.200E+02, 3.630E+02, 4.800E+02
 7.350E+02, 3.653E+02, 4.800E+02
 7.500E+02, 3.677E+02, 4.800E+02
 7.650E+02, 3.699E+02, 4.800E+02
 7.800E+02, 3.722E+02, 4.800E+02
 7.950E+02, 3.743E+02, 4.800E+02
 8.100E+02, 3.765E+02, 4.800E+02
 8.250E+02, 3.785E+02, 4.797E+02
 8.400E+02, 3.803E+02, 4.748E+02
 8.550E+02, 3.819E+02, 4.686E+02
 8.700E+02, 3.828E+02, 4.625E+02
 8.850E+02, 3.832E+02, 4.563E+02
 9.000E+02, 3.833E+02, 4.501E+02
 9.150E+02, 3.830E+02, 4.439E+02
 9.300E+02, 3.826E+02, 4.377E+02
 9.450E+02, 3.819E+02, 4.315E+02
 9.600E+02, 3.808E+02, 4.253E+02
 9.750E+02, 3.794E+02, 4.191E+02
 9.900E+02, 3.778E+02, 4.129E+02
 1.005E+03, 3.762E+02, 4.068E+02
 1.020E+03, 3.745E+02, 4.006E+02
 1.035E+03, 3.727E+02, 3.944E+02
 1.050E+03, 3.707E+02, 3.882E+02
 1.065E+03, 3.685E+02, 3.820E+02
 1.080E+03, 3.661E+02, 3.758E+02
 1.095E+03, 3.637E+02, 3.696E+02
 1.110E+03, 3.612E+02, 3.634E+02
 1.125E+03, 3.585E+02, 3.572E+02
 1.140E+03, 3.558E+02, 3.511E+02
 1.155E+03, 3.529E+02, 3.449E+02
 1.170E+03, 3.502E+02, 3.387E+02
 1.185E+03, 3.476E+02, 3.325E+02
 1.200E+03, 3.448E+02, 3.263E+02
 1.215E+03, 3.417E+02, 3.201E+02
 1.230E+03, 3.385E+02, 3.139E+02
 1.245E+03, 3.353E+02, 3.078E+02
 1.260E+03, 3.323E+02, 3.032E+02
 1.275E+03, 3.292E+02, 2.990E+02
 1.290E+03, 3.262E+02, 2.949E+02
 1.305E+03, 3.231E+02, 2.907E+02
 1.320E+03, 3.200E+02, 2.865E+02
 1.335E+03, 3.170E+02, 2.823E+02
 1.350E+03, 3.141E+02, 2.781E+02
 1.365E+03, 3.113E+02, 2.740E+02
 1.380E+03, 3.085E+02, 2.698E+02
 1.395E+03, 3.057E+02, 2.656E+02
 1.410E+03, 3.027E+02, 2.614E+02
 1.425E+03, 2.998E+02, 2.572E+02
 1.440E+03, 2.970E+02, 2.531E+02
 1.455E+03, 2.940E+02, 2.489E+02
 1.470E+03, 2.909E+02, 2.447E+02
 1.485E+03, 2.880E+02, 2.405E+02
 1.500E+03, 2.852E+02, 2.363E+02
 1.515E+03, 2.823E+02, 2.322E+02
 1.530E+03, 2.794E+02, 2.280E+02
 1.545E+03, 2.766E+02, 2.238E+02
 1.560E+03, 2.738E+02, 2.196E+02
 1.575E+03, 2.710E+02, 2.154E+02
 1.590E+03, 2.682E+02, 2.113E+02
 1.605E+03, 2.655E+02, 2.073E+02
 1.620E+03, 2.629E+02, 2.064E+02
 1.635E+03, 2.601E+02, 2.064E+02
 1.650E+03, 2.575E+02, 2.064E+02
 1.665E+03, 2.549E+02, 2.064E+02
 1.680E+03, 2.524E+02, 2.064E+02
 1.695E+03, 2.499E+02, 2.064E+02
 1.710E+03, 2.477E+02, 2.064E+02
 1.725E+03, 2.456E+02, 2.064E+02
 1.740E+03, 2.435E+02, 2.064E+02
 1.755E+03, 2.414E+02, 2.064E+02
 1.770E+03, 2.393E+02, 2.064E+02
 1.785E+03, 2.374E+02, 2.064E+02
 1.800E+03, 2.355E+02, 2.064E+02
