s,C,C
Time,"Cable Temp","Shroud Temp"
 0.0000000E+000, 2.8000000E+001, 2.8000000E+001
 1.0025171E+001, 2.8002857E+001, 5.0549885E+001
 2.0035690E+001, 2.8077229E+001, 9.5303375E+001
 3.0024030E+001, 2.8402702E+001, 1.3996724E+002
 4.0010138E+001, 2.9146679E+001, 1.8459044E+002
 5.0008249E+001, 3.0454288E+001, 2.2924651E+002
 6.0002237E+001, 3.2516460E+001, 2.7392499E+002
 7.0011980E+001, 3.5599403E+001, 3.1862592E+002
 8.0001244E+001, 3.9982231E+001, 3.6332135E+002
 9.0001735E+001, 4.5876858E+001, 4.0799576E+002
 1.0000289E+002, 5.3543262E+001, 4.5269763E+002
 1.1001163E+002, 6.3283436E+001, 4.7499780E+002
 1.2000704E+002, 7.4593872E+001, 4.7500000E+002
 1.3001372E+002, 8.6102661E+001, 4.7500000E+002
 1.4000066E+002, 9.7125992E+001, 4.7500000E+002
 1.5000270E+002, 1.0751942E+002, 4.7500000E+002
 1.6000569E+002, 1.1730818E+002, 4.7500000E+002
 1.7000781E+002, 1.2662193E+002, 4.7500000E+002
 1.8000991E+002, 1.3548918E+002, 4.7500000E+002
 1.9000222E+002, 1.4395488E+002, 4.7500000E+002
 2.0000742E+002, 1.5200066E+002, 4.7500000E+002
 2.1001201E+002, 1.5965401E+002, 4.7500000E+002
 2.2000219E+002, 1.6702690E+002, 4.7500000E+002
 2.3000051E+002, 1.7416371E+002, 4.7500000E+002
 2.4001097E+002, 1.8109436E+002, 4.7500000E+002
 2.5000360E+002, 1.8774722E+002, 4.7500000E+002
 2.6000284E+002, 1.9413423E+002, 4.7500000E+002
 2.7000981E+002, 2.0029402E+002, 4.7500000E+002
 2.8000521E+002, 2.0625885E+002, 4.7500000E+002
 2.9000304E+002, 2.1205672E+002, 4.7500000E+002
 3.0001160E+002, 2.1767902E+002, 4.7500000E+002
 3.1000569E+002, 2.2313542E+002, 4.7500000E+002
 3.2000065E+002, 2.2840286E+002, 4.7500000E+002
 3.3000248E+002, 2.3350130E+002, 4.7500000E+002
 3.4000815E+002, 2.3850356E+002, 4.7500000E+002
 3.5000584E+002, 2.4346237E+002, 4.7500000E+002
 3.6000330E+002, 2.4825308E+002, 4.7500000E+002
 3.7000146E+002, 2.5280841E+002, 4.7500000E+002
 3.8000876E+002, 2.5722748E+002, 4.7500000E+002
 3.9000956E+002, 2.6157504E+002, 4.7500000E+002
 4.0001096E+002, 2.6592761E+002, 4.7500000E+002
 4.1001120E+002, 2.7013297E+002, 4.7500000E+002
 4.2001079E+002, 2.7411490E+002, 4.7500000E+002
 4.3000822E+002, 2.7806226E+002, 4.7500000E+002
 4.4001048E+002, 2.8193594E+002, 4.7500000E+002
 4.5000186E+002, 2.8568765E+002, 4.7500000E+002
 4.6000224E+002, 2.8929959E+002, 4.7500000E+002
 4.7000191E+002, 2.9272824E+002, 4.7500000E+002
 4.8000859E+002, 2.9611996E+002, 4.7500000E+002
 4.9000998E+002, 2.9951389E+002, 4.7500000E+002
 5.0000851E+002, 3.0285025E+002, 4.7500000E+002
 5.1000668E+002, 3.0601074E+002, 4.7500000E+002
 5.2000933E+002, 3.0907584E+002, 4.7500000E+002
 5.3000361E+002, 3.1202917E+002, 4.7500000E+002
 5.4000893E+002, 3.1487064E+002, 4.7500000E+002
 5.5001152E+002, 3.1768909E+002, 4.7500000E+002
 5.6000060E+002, 3.2049637E+002, 4.7500000E+002
 5.7001138E+002, 3.2318594E+002, 4.7500000E+002
 5.8000581E+002, 3.2577875E+002, 4.7500000E+002
 5.9000528E+002, 3.2829596E+002, 4.7500000E+002
 6.0000680E+002, 3.3073300E+002, 4.7500000E+002
 6.1000645E+002, 3.3322449E+002, 4.7500000E+002
 6.2000743E+002, 3.3576340E+002, 4.7500000E+002
 6.3000339E+002, 3.3822424E+002, 4.7500000E+002
 6.4000824E+002, 3.4056210E+002, 4.7500000E+002
 6.5000597E+002, 3.4276868E+002, 4.7500000E+002
 6.6000383E+002, 3.4492688E+002, 4.7500000E+002
 6.7000236E+002, 3.4700571E+002, 4.7500000E+002
 6.8000382E+002, 3.4916574E+002, 4.7500000E+002
 6.9000245E+002, 3.5134439E+002, 4.7500000E+002
 7.0000187E+002, 3.5349478E+002, 4.7500000E+002
 7.1000231E+002, 3.5565363E+002, 4.7500000E+002
 7.2000755E+002, 3.5774518E+002, 4.7500000E+002
 7.3000643E+002, 3.5977454E+002, 4.7500000E+002
 7.4000221E+002, 3.6189081E+002, 4.7500000E+002
 7.5000751E+002, 3.6396875E+002, 4.7500000E+002
 7.6000398E+002, 3.6597275E+002, 4.7500000E+002
 7.7000015E+002, 3.6795779E+002, 4.7500000E+002
 7.8000741E+002, 3.6991879E+002, 4.7500000E+002
 7.9000079E+002, 3.7182440E+002, 4.7500000E+002
 8.0000641E+002, 3.7382141E+002, 4.7500000E+002
 8.1000350E+002, 3.7586453E+002, 4.7500000E+002
 8.2000571E+002, 3.7794028E+002, 4.7500000E+002
 8.3000281E+002, 3.8000781E+002, 4.7500000E+002
 8.4000464E+002, 3.8206354E+002, 4.7500000E+002
 8.5000380E+002, 3.8411411E+002, 4.7500000E+002
 8.6000391E+002, 3.8614990E+002, 4.7500000E+002
 8.7000075E+002, 3.8810968E+002, 4.7500000E+002
 8.8000574E+002, 3.8999365E+002, 4.7500000E+002
 8.9000479E+002, 3.9183099E+002, 4.7500000E+002
 9.0000298E+002, 3.9364340E+002, 4.7500000E+002
 9.1000357E+002, 3.9540784E+002, 4.7500000E+002
 9.2000343E+002, 3.9710474E+002, 4.7500000E+002
 9.3000075E+002, 3.9872586E+002, 4.7500000E+002
 9.4000521E+002, 4.0029865E+002, 4.7500000E+002
 9.5000427E+002, 4.0181796E+002, 4.7500000E+002
 9.6000489E+002, 4.0328308E+002, 4.7500000E+002
 9.7000752E+002, 4.0470581E+002, 4.7500000E+002
 9.8000600E+002, 4.0610294E+002, 4.7500000E+002
 9.9000400E+002, 4.0748715E+002, 4.7500000E+002
 1.0000023E+003, 4.0885715E+002, 4.7500000E+002
 1.0100050E+003, 4.1019348E+002, 4.7500000E+002
 1.0200044E+003, 4.1148602E+002, 4.7500000E+002
 1.0300018E+003, 4.1273029E+002, 4.7500000E+002
 1.0400010E+003, 4.1394147E+002, 4.7500000E+002
 1.0500022E+003, 4.1511484E+002, 4.7500000E+002
 1.0600024E+003, 4.1624341E+002, 4.7500000E+002
 1.0700053E+003, 4.1734271E+002, 4.7500000E+002
 1.0800013E+003, 4.1841354E+002, 4.7500000E+002
 1.0900026E+003, 4.1946317E+002, 4.7500000E+002
 1.1000051E+003, 4.2048889E+002, 4.7500000E+002
 1.1100019E+003, 4.2149393E+002, 4.7500000E+002
 1.1200046E+003, 4.2247958E+002, 4.7500000E+002
 1.1300041E+003, 4.2342990E+002, 4.7500000E+002
 1.1400058E+003, 4.2434213E+002, 4.7500000E+002
 1.1500043E+003, 4.2522369E+002, 4.7500000E+002
 1.1600007E+003, 4.2608362E+002, 4.7500000E+002
 1.1700063E+003, 4.2690054E+002, 4.7500000E+002
 1.1800037E+003, 4.2768912E+002, 4.7500000E+002
 1.1900004E+003, 4.2846237E+002, 4.7500000E+002
 1.2000008E+003, 4.2922421E+002, 4.7500000E+002
 1.2100028E+003, 4.2997681E+002, 4.7500000E+002
 1.2200037E+003, 4.3072128E+002, 4.7500000E+002
 1.2300052E+003, 4.3144266E+002, 4.7500000E+002
 1.2400055E+003, 4.3213202E+002, 4.7500000E+002
 1.2500032E+003, 4.3279382E+002, 4.7500000E+002
 1.2600068E+003, 4.3342941E+002, 4.7500000E+002
 1.2700035E+003, 4.3404578E+002, 4.7500000E+002
 1.2800014E+003, 4.3463947E+002, 4.7500000E+002
 1.2900068E+003, 4.3521439E+002, 4.7500000E+002
 1.3000012E+003, 4.3577716E+002, 4.7499963E+002
 1.3100019E+003, 4.3632605E+002, 4.7276251E+002
 1.3200003E+003, 4.3677579E+002, 4.6829297E+002
 1.3300039E+003, 4.3701294E+002, 4.6382251E+002
 1.3400013E+003, 4.3702783E+002, 4.5935229E+002
 1.3500067E+003, 4.3682663E+002, 4.5488165E+002
 1.3600074E+003, 4.3642819E+002, 4.5041031E+002
 1.3700006E+003, 4.3588666E+002, 4.4594165E+002
 1.3800038E+003, 4.3518906E+002, 4.4147241E+002
 1.3900042E+003, 4.3434070E+002, 4.3700162E+002
 1.4000051E+003, 4.3336975E+002, 4.3253131E+002
 1.4100009E+003, 4.3229739E+002, 4.2806210E+002
 1.4200046E+003, 4.3113779E+002, 4.2359222E+002
 1.4300068E+003, 4.2988052E+002, 4.1912088E+002
 1.4400031E+003, 4.2853323E+002, 4.1465121E+002
 1.4500067E+003, 4.2710266E+002, 4.1018118E+002
 1.4600059E+003, 4.2559503E+002, 4.0571060E+002
 1.4700022E+003, 4.2400430E+002, 4.0124155E+002
 1.4800075E+003, 4.2233987E+002, 3.9677127E+002
 1.4900051E+003, 4.2063089E+002, 3.9230060E+002
 1.5000072E+003, 4.1888104E+002, 3.8783060E+002
 1.5100016E+003, 4.1710159E+002, 3.8336142E+002
 1.5200009E+003, 4.1528168E+002, 3.7889279E+002
 1.5300022E+003, 4.1341309E+002, 3.7442261E+002
 1.5400032E+003, 4.1147058E+002, 3.6995212E+002
 1.5500050E+003, 4.0947153E+002, 3.6548145E+002
 1.5600057E+003, 4.0743549E+002, 3.6101093E+002
 1.5700029E+003, 4.0533533E+002, 3.5654138E+002
 1.5800069E+003, 4.0317493E+002, 3.5207104E+002
 1.5900067E+003, 4.0097595E+002, 3.4760022E+002
 1.6000073E+003, 3.9874750E+002, 3.4313016E+002
 1.6100025E+003, 3.9649237E+002, 3.3866104E+002
 1.6200017E+003, 3.9421295E+002, 3.3419232E+002
 1.6300039E+003, 3.9190421E+002, 3.2972198E+002
 1.6400053E+003, 3.8957715E+002, 3.2525113E+002
 1.6500058E+003, 3.8723172E+002, 3.2078073E+002
 1.6600041E+003, 3.8487775E+002, 3.1631104E+002
 1.6700034E+003, 3.8252542E+002, 3.1184155E+002
 1.6800062E+003, 3.8017590E+002, 3.0737106E+002
 1.6900046E+003, 3.7781488E+002, 3.0290076E+002
 1.7000081E+003, 3.7541782E+002, 2.9843030E+002
 1.7100023E+003, 3.7300262E+002, 2.9620001E+002
 1.7200079E+003, 3.7060886E+002, 2.9620001E+002
 1.7300021E+003, 3.6827814E+002, 2.9620001E+002
 1.7400047E+003, 3.6603821E+002, 2.9620001E+002
 1.7500036E+003, 3.6388272E+002, 2.9620001E+002
 1.7600007E+003, 3.6178058E+002, 2.9620001E+002
 1.7700006E+003, 3.5974017E+002, 2.9620001E+002
 1.7800029E+003, 3.5776062E+002, 2.9620001E+002
 1.7900081E+003, 3.5583600E+002, 2.9620001E+002
 1.8000057E+003, 3.5397430E+002, 2.9620001E+002
