s,C,C,C
Time,"Cable Temp","Shroud Temp","Conduit"
 0.000E+00, 3.100E+01, 3.100E+01, 3.100E+01
 1.503E+01, 3.099E+01, 7.158E+01, 3.106E+01
 3.005E+01, 3.100E+01, 1.517E+02, 3.171E+01
 4.505E+01, 3.105E+01, 2.319E+02, 3.359E+01
 6.001E+01, 3.125E+01, 3.074E+02, 3.737E+01
 7.501E+01, 3.173E+01, 3.250E+02, 4.265E+01
 9.004E+01, 3.214E+01, 3.250E+02, 4.801E+01
 1.050E+02, 3.260E+01, 3.250E+02, 5.326E+01
 1.200E+02, 3.326E+01, 3.250E+02, 5.843E+01
 1.350E+02, 3.397E+01, 3.250E+02, 6.353E+01
 1.500E+02, 3.463E+01, 3.250E+02, 6.855E+01
 1.650E+02, 3.538E+01, 3.250E+02, 7.348E+01
 1.800E+02, 3.631E+01, 3.250E+02, 7.833E+01
 1.950E+02, 3.738E+01, 3.250E+02, 8.312E+01
 2.100E+02, 3.819E+01, 3.250E+02, 8.780E+01
 2.250E+02, 3.918E+01, 3.250E+02, 9.240E+01
 2.400E+02, 4.020E+01, 3.250E+02, 9.693E+01
 2.550E+02, 4.124E+01, 3.250E+02, 1.014E+02
 2.700E+02, 4.242E+01, 3.250E+02, 1.058E+02
 2.850E+02, 4.370E+01, 3.250E+02, 1.101E+02
 3.000E+02, 4.507E+01, 3.250E+02, 1.143E+02
 3.150E+02, 4.646E+01, 3.250E+02, 1.185E+02
 3.300E+02, 4.786E+01, 3.250E+02, 1.225E+02
 3.450E+02, 4.946E+01, 3.250E+02, 1.265E+02
 3.600E+02, 5.115E+01, 3.250E+02, 1.304E+02
 3.750E+02, 5.278E+01, 3.250E+02, 1.343E+02
 3.900E+02, 5.441E+01, 3.250E+02, 1.380E+02
 4.050E+02, 5.610E+01, 3.250E+02, 1.417E+02
 4.200E+02, 5.786E+01, 3.250E+02, 1.454E+02
 4.350E+02, 5.967E+01, 3.250E+02, 1.490E+02
 4.500E+02, 6.156E+01, 3.250E+02, 1.524E+02
 4.650E+02, 6.347E+01, 3.250E+02, 1.559E+02
 4.800E+02, 6.550E+01, 3.250E+02, 1.592E+02
 4.950E+02, 6.747E+01, 3.250E+02, 1.625E+02
 5.100E+02, 6.956E+01, 3.250E+02, 1.657E+02
 5.250E+02, 7.167E+01, 3.250E+02, 1.688E+02
 5.400E+02, 7.379E+01, 3.250E+02, 1.720E+02
 5.550E+02, 7.596E+01, 3.250E+02, 1.750E+02
 5.700E+02, 7.816E+01, 3.250E+02, 1.780E+02
 5.850E+02, 8.042E+01, 3.250E+02, 1.809E+02
 6.000E+02, 8.272E+01, 3.250E+02, 1.838E+02
 6.150E+02, 8.506E+01, 3.250E+02, 1.866E+02
 6.300E+02, 8.742E+01, 3.250E+02, 1.894E+02
 6.450E+02, 8.979E+01, 3.250E+02, 1.921E+02
 6.600E+02, 9.224E+01, 3.250E+02, 1.947E+02
 6.750E+02, 9.470E+01, 3.250E+02, 1.973E+02
 6.900E+02, 9.717E+01, 3.250E+02, 1.998E+02
 7.050E+02, 9.959E+01, 3.250E+02, 2.022E+02
 7.200E+02, 1.021E+02, 3.250E+02, 2.046E+02
 7.350E+02, 1.047E+02, 3.250E+02, 2.070E+02
 7.500E+02, 1.072E+02, 3.250E+02, 2.092E+02
 7.650E+02, 1.097E+02, 3.250E+02, 2.115E+02
 7.800E+02, 1.123E+02, 3.250E+02, 2.136E+02
 7.950E+02, 1.149E+02, 3.250E+02, 2.158E+02
 8.100E+02, 1.175E+02, 3.250E+02, 2.179E+02
 8.250E+02, 1.201E+02, 3.250E+02, 2.199E+02
 8.400E+02, 1.227E+02, 3.250E+02, 2.219E+02
 8.550E+02, 1.252E+02, 3.250E+02, 2.238E+02
 8.700E+02, 1.278E+02, 3.250E+02, 2.256E+02
 8.850E+02, 1.304E+02, 3.250E+02, 2.275E+02
 9.000E+02, 1.330E+02, 3.250E+02, 2.292E+02
 9.150E+02, 1.356E+02, 3.250E+02, 2.310E+02
 9.300E+02, 1.381E+02, 3.250E+02, 2.327E+02
 9.450E+02, 1.407E+02, 3.250E+02, 2.343E+02
 9.600E+02, 1.433E+02, 3.250E+02, 2.359E+02
 9.750E+02, 1.459E+02, 3.250E+02, 2.375E+02
 9.900E+02, 1.484E+02, 3.250E+02, 2.390E+02
 1.005E+03, 1.509E+02, 3.250E+02, 2.405E+02
 1.020E+03, 1.534E+02, 3.250E+02, 2.419E+02
 1.035E+03, 1.559E+02, 3.250E+02, 2.433E+02
 1.050E+03, 1.584E+02, 3.250E+02, 2.446E+02
 1.065E+03, 1.608E+02, 3.250E+02, 2.459E+02
 1.080E+03, 1.632E+02, 3.250E+02, 2.473E+02
 1.095E+03, 1.656E+02, 3.250E+02, 2.485E+02
 1.110E+03, 1.680E+02, 3.250E+02, 2.497E+02
 1.125E+03, 1.704E+02, 3.250E+02, 2.509E+02
 1.140E+03, 1.728E+02, 3.250E+02, 2.521E+02
 1.155E+03, 1.751E+02, 3.250E+02, 2.533E+02
 1.170E+03, 1.774E+02, 3.250E+02, 2.544E+02
 1.185E+03, 1.796E+02, 3.250E+02, 2.554E+02
 1.200E+03, 1.819E+02, 3.250E+02, 2.565E+02
 1.215E+03, 1.841E+02, 3.250E+02, 2.575E+02
 1.230E+03, 1.862E+02, 3.250E+02, 2.584E+02
 1.245E+03, 1.884E+02, 3.250E+02, 2.594E+02
 1.260E+03, 1.906E+02, 3.250E+02, 2.603E+02
 1.275E+03, 1.926E+02, 3.250E+02, 2.612E+02
 1.290E+03, 1.947E+02, 3.250E+02, 2.621E+02
 1.305E+03, 1.967E+02, 3.250E+02, 2.629E+02
 1.320E+03, 1.987E+02, 3.250E+02, 2.638E+02
 1.335E+03, 2.006E+02, 3.250E+02, 2.645E+02
 1.350E+03, 2.026E+02, 3.250E+02, 2.653E+02
 1.365E+03, 2.045E+02, 3.250E+02, 2.661E+02
 1.380E+03, 2.065E+02, 3.250E+02, 2.669E+02
 1.395E+03, 2.083E+02, 3.250E+02, 2.677E+02
 1.410E+03, 2.101E+02, 3.250E+02, 2.684E+02
 1.425E+03, 2.119E+02, 3.250E+02, 2.691E+02
 1.440E+03, 2.136E+02, 3.250E+02, 2.697E+02
 1.455E+03, 2.154E+02, 3.250E+02, 2.704E+02
 1.470E+03, 2.172E+02, 3.250E+02, 2.710E+02
 1.485E+03, 2.187E+02, 3.250E+02, 2.716E+02
 1.500E+03, 2.202E+02, 3.250E+02, 2.722E+02
 1.515E+03, 2.219E+02, 3.250E+02, 2.729E+02
 1.530E+03, 2.235E+02, 3.250E+02, 2.734E+02
 1.545E+03, 2.250E+02, 3.250E+02, 2.740E+02
 1.560E+03, 2.266E+02, 3.250E+02, 2.746E+02
 1.575E+03, 2.282E+02, 3.250E+02, 2.752E+02
 1.590E+03, 2.296E+02, 3.250E+02, 2.757E+02
 1.605E+03, 2.310E+02, 3.250E+02, 2.762E+02
 1.620E+03, 2.323E+02, 3.250E+02, 2.767E+02
 1.635E+03, 2.337E+02, 3.250E+02, 2.771E+02
 1.650E+03, 2.350E+02, 3.250E+02, 2.776E+02
 1.665E+03, 2.362E+02, 3.250E+02, 2.780E+02
 1.680E+03, 2.376E+02, 3.250E+02, 2.784E+02
 1.695E+03, 2.389E+02, 3.250E+02, 2.788E+02
 1.710E+03, 2.402E+02, 3.250E+02, 2.793E+02
 1.725E+03, 2.415E+02, 3.250E+02, 2.797E+02
 1.740E+03, 2.427E+02, 3.250E+02, 2.801E+02
 1.755E+03, 2.438E+02, 3.250E+02, 2.805E+02
 1.770E+03, 2.449E+02, 3.250E+02, 2.809E+02
 1.785E+03, 2.460E+02, 3.250E+02, 2.813E+02
 1.800E+03, 2.472E+02, 3.250E+02, 2.817E+02
 1.815E+03, 2.482E+02, 3.250E+02, 2.821E+02
 1.830E+03, 2.490E+02, 3.250E+02, 2.824E+02
 1.845E+03, 2.501E+02, 3.250E+02, 2.827E+02
 1.860E+03, 2.510E+02, 3.250E+02, 2.830E+02
 1.875E+03, 2.521E+02, 3.250E+02, 2.833E+02
 1.890E+03, 2.531E+02, 3.250E+02, 2.836E+02
 1.905E+03, 2.539E+02, 3.250E+02, 2.839E+02
 1.920E+03, 2.549E+02, 3.250E+02, 2.842E+02
 1.935E+03, 2.559E+02, 3.250E+02, 2.846E+02
 1.950E+03, 2.567E+02, 3.250E+02, 2.849E+02
 1.965E+03, 2.575E+02, 3.250E+02, 2.851E+02
 1.980E+03, 2.584E+02, 3.250E+02, 2.854E+02
 1.995E+03, 2.593E+02, 3.250E+02, 2.856E+02
 2.010E+03, 2.602E+02, 3.250E+02, 2.859E+02
 2.025E+03, 2.611E+02, 3.250E+02, 2.863E+02
 2.040E+03, 2.618E+02, 3.250E+02, 2.866E+02
 2.055E+03, 2.626E+02, 3.250E+02, 2.868E+02
 2.070E+03, 2.633E+02, 3.250E+02, 2.870E+02
 2.085E+03, 2.639E+02, 3.250E+02, 2.872E+02
 2.100E+03, 2.644E+02, 3.250E+02, 2.873E+02
 2.115E+03, 2.650E+02, 3.250E+02, 2.875E+02
 2.130E+03, 2.657E+02, 3.250E+02, 2.877E+02
 2.145E+03, 2.664E+02, 3.250E+02, 2.879E+02
 2.160E+03, 2.671E+02, 3.250E+02, 2.881E+02
 2.175E+03, 2.677E+02, 3.250E+02, 2.883E+02
 2.190E+03, 2.682E+02, 3.250E+02, 2.884E+02
 2.205E+03, 2.688E+02, 3.250E+02, 2.886E+02
 2.220E+03, 2.694E+02, 3.250E+02, 2.888E+02
 2.235E+03, 2.699E+02, 3.250E+02, 2.890E+02
 2.250E+03, 2.704E+02, 3.250E+02, 2.892E+02
 2.265E+03, 2.709E+02, 3.250E+02, 2.893E+02
 2.280E+03, 2.713E+02, 3.250E+02, 2.894E+02
 2.295E+03, 2.717E+02, 3.250E+02, 2.895E+02
 2.310E+03, 2.722E+02, 3.250E+02, 2.897E+02
 2.325E+03, 2.728E+02, 3.250E+02, 2.898E+02
 2.340E+03, 2.732E+02, 3.250E+02, 2.900E+02
 2.355E+03, 2.733E+02, 3.250E+02, 2.900E+02
 2.370E+03, 2.737E+02, 3.250E+02, 2.901E+02
 2.385E+03, 2.742E+02, 3.250E+02, 2.902E+02
 2.400E+03, 2.744E+02, 3.250E+02, 2.903E+02
 2.415E+03, 2.748E+02, 3.250E+02, 2.904E+02
 2.430E+03, 2.752E+02, 3.250E+02, 2.905E+02
 2.445E+03, 2.754E+02, 3.250E+02, 2.905E+02
 2.460E+03, 2.760E+02, 3.250E+02, 2.907E+02
 2.475E+03, 2.764E+02, 3.250E+02, 2.908E+02
 2.490E+03, 2.767E+02, 3.250E+02, 2.909E+02
 2.505E+03, 2.770E+02, 3.250E+02, 2.910E+02
 2.520E+03, 2.775E+02, 3.250E+02, 2.911E+02
 2.535E+03, 2.778E+02, 3.250E+02, 2.912E+02
 2.550E+03, 2.781E+02, 3.250E+02, 2.913E+02
 2.565E+03, 2.781E+02, 3.250E+02, 2.914E+02
 2.580E+03, 2.785E+02, 3.250E+02, 2.915E+02
 2.595E+03, 2.788E+02, 3.250E+02, 2.916E+02
 2.610E+03, 2.792E+02, 3.250E+02, 2.917E+02
 2.625E+03, 2.796E+02, 3.250E+02, 2.918E+02
 2.640E+03, 2.800E+02, 3.250E+02, 2.919E+02
 2.655E+03, 2.804E+02, 3.250E+02, 2.921E+02
 2.670E+03, 2.807E+02, 3.250E+02, 2.922E+02
 2.685E+03, 2.805E+02, 3.250E+02, 2.922E+02
 2.700E+03, 2.807E+02, 3.250E+02, 2.922E+02
 2.715E+03, 2.810E+02, 3.250E+02, 2.923E+02
 2.730E+03, 2.812E+02, 3.250E+02, 2.924E+02
 2.745E+03, 2.814E+02, 3.250E+02, 2.924E+02
 2.760E+03, 2.819E+02, 3.250E+02, 2.925E+02
 2.775E+03, 2.822E+02, 3.250E+02, 2.927E+02
 2.790E+03, 2.825E+02, 3.250E+02, 2.928E+02
 2.805E+03, 2.828E+02, 3.250E+02, 2.929E+02
 2.820E+03, 2.830E+02, 3.250E+02, 2.930E+02
 2.835E+03, 2.830E+02, 3.250E+02, 2.930E+02
 2.850E+03, 2.833E+02, 3.250E+02, 2.931E+02
 2.865E+03, 2.836E+02, 3.250E+02, 2.932E+02
 2.880E+03, 2.837E+02, 3.250E+02, 2.933E+02
 2.895E+03, 2.840E+02, 3.250E+02, 2.934E+02
 2.910E+03, 2.842E+02, 3.250E+02, 2.934E+02
 2.925E+03, 2.841E+02, 3.250E+02, 2.934E+02
 2.940E+03, 2.843E+02, 3.250E+02, 2.934E+02
 2.955E+03, 2.844E+02, 3.250E+02, 2.935E+02
 2.970E+03, 2.845E+02, 3.250E+02, 2.935E+02
 2.985E+03, 2.847E+02, 3.250E+02, 2.936E+02
 3.000E+03, 2.848E+02, 3.250E+02, 2.936E+02
 3.015E+03, 2.848E+02, 3.250E+02, 2.935E+02
 3.030E+03, 2.848E+02, 3.250E+02, 2.935E+02
 3.045E+03, 2.850E+02, 3.250E+02, 2.936E+02
 3.060E+03, 2.850E+02, 3.250E+02, 2.936E+02
 3.075E+03, 2.853E+02, 3.250E+02, 2.937E+02
 3.090E+03, 2.855E+02, 3.250E+02, 2.937E+02
 3.105E+03, 2.858E+02, 3.250E+02, 2.938E+02
 3.120E+03, 2.860E+02, 3.250E+02, 2.939E+02
 3.135E+03, 2.858E+02, 3.250E+02, 2.938E+02
 3.150E+03, 2.860E+02, 3.250E+02, 2.939E+02
 3.165E+03, 2.862E+02, 3.250E+02, 2.939E+02
 3.180E+03, 2.863E+02, 3.250E+02, 2.940E+02
 3.195E+03, 2.864E+02, 3.250E+02, 2.940E+02
 3.210E+03, 2.865E+02, 3.250E+02, 2.940E+02
 3.225E+03, 2.866E+02, 3.250E+02, 2.941E+02
 3.240E+03, 2.866E+02, 3.250E+02, 2.941E+02
 3.255E+03, 2.866E+02, 3.250E+02, 2.941E+02
 3.270E+03, 2.868E+02, 3.250E+02, 2.941E+02
 3.285E+03, 2.869E+02, 3.250E+02, 2.942E+02
 3.300E+03, 2.870E+02, 3.250E+02, 2.942E+02
 3.315E+03, 2.871E+02, 3.250E+02, 2.943E+02
 3.330E+03, 2.874E+02, 3.250E+02, 2.944E+02
 3.345E+03, 2.875E+02, 3.250E+02, 2.944E+02
 3.360E+03, 2.876E+02, 3.250E+02, 2.945E+02
 3.375E+03, 2.877E+02, 3.139E+02, 2.944E+02
 3.390E+03, 2.878E+02, 2.919E+02, 2.936E+02
 3.405E+03, 2.878E+02, 2.698E+02, 2.923E+02
 3.420E+03, 2.877E+02, 2.477E+02, 2.904E+02
 3.435E+03, 2.875E+02, 2.257E+02, 2.880E+02
 3.450E+03, 2.871E+02, 2.037E+02, 2.852E+02
 3.465E+03, 2.866E+02, 1.829E+02, 2.822E+02
 3.480E+03, 2.860E+02, 1.780E+02, 2.790E+02
 3.495E+03, 2.851E+02, 1.780E+02, 2.759E+02
 3.510E+03, 2.842E+02, 1.780E+02, 2.729E+02
 3.525E+03, 2.832E+02, 1.780E+02, 2.700E+02
 3.540E+03, 2.821E+02, 1.780E+02, 2.673E+02
 3.555E+03, 2.811E+02, 1.780E+02, 2.646E+02
 3.570E+03, 2.796E+02, 1.780E+02, 2.620E+02
 3.585E+03, 2.784E+02, 1.780E+02, 2.595E+02
 3.600E+03, 2.773E+02, 1.780E+02, 2.571E+02
