s,C,C
Time,"Cable Temp","Shroud Temp"
 0.0000000E+000, 2.8000000E+001, 2.8000000E+001
 1.0025171E+001, 2.8077457E+001, 5.0802120E+001
 2.0013661E+001, 2.8720966E+001, 9.6002831E+001
 3.0007916E+001, 3.0167376E+001, 1.4112387E+002
 4.0014030E+001, 3.2573475E+001, 1.8631987E+002
 5.0001548E+001, 3.6164181E+001, 2.3149217E+002
 6.0022288E+001, 4.1228954E+001, 2.7670505E+002
 7.0008313E+001, 4.8005119E+001, 3.2191202E+002
 8.0011570E+001, 5.6961449E+001, 3.6708621E+002
 9.0011630E+001, 6.8718666E+001, 4.1229025E+002
 1.0000089E+002, 8.4033791E+001, 4.5745972E+002
 1.1000857E+002, 1.0148595E+002, 4.7999734E+002
 1.2000031E+002, 1.1623798E+002, 4.8000000E+002
 1.3000840E+002, 1.2888802E+002, 4.8000000E+002
 1.4000870E+002, 1.3977048E+002, 4.8000000E+002
 1.5000223E+002, 1.4987366E+002, 4.8000000E+002
 1.6000036E+002, 1.5932845E+002, 4.8000000E+002
 1.7001183E+002, 1.6797807E+002, 4.8000000E+002
 1.8000567E+002, 1.7567412E+002, 4.8000000E+002
 1.9000837E+002, 1.8335815E+002, 4.8000000E+002
 2.0000086E+002, 1.9083984E+002, 4.8000000E+002
 2.1001326E+002, 1.9789413E+002, 4.8000000E+002
 2.2001239E+002, 2.0485498E+002, 4.8000000E+002
 2.3000098E+002, 2.1145261E+002, 4.8000000E+002
 2.4000212E+002, 2.1780676E+002, 4.8000000E+002
 2.5000566E+002, 2.2378107E+002, 4.8000000E+002
 2.6000578E+002, 2.2977719E+002, 4.8000000E+002
 2.7000286E+002, 2.3560172E+002, 4.8000000E+002
 2.8001176E+002, 2.4095810E+002, 4.8000000E+002
 2.9000821E+002, 2.4649451E+002, 4.8000000E+002
 3.0000770E+002, 2.5191689E+002, 4.8000000E+002
 3.1000933E+002, 2.5667676E+002, 4.8000000E+002
 3.2000836E+002, 2.6151346E+002, 4.8000000E+002
 3.3000224E+002, 2.6664264E+002, 4.8000000E+002
 3.4000109E+002, 2.7168396E+002, 4.8000000E+002
 3.5000501E+002, 2.7630576E+002, 4.8000000E+002
 3.6000738E+002, 2.8128940E+002, 4.8000000E+002
 3.7000550E+002, 2.8528519E+002, 4.8000000E+002
 3.8000471E+002, 2.8967044E+002, 4.8000000E+002
 3.9000262E+002, 2.9382874E+002, 4.8000000E+002
 4.0001309E+002, 2.9775891E+002, 4.8000000E+002
 4.1000244E+002, 3.0143295E+002, 4.8000000E+002
 4.2000486E+002, 3.0497464E+002, 4.8000000E+002
 4.3000971E+002, 3.0907513E+002, 4.8000000E+002
 4.4000311E+002, 3.1270602E+002, 4.8000000E+002
 4.5000428E+002, 3.1586569E+002, 4.8000000E+002
 4.6000179E+002, 3.1895636E+002, 4.8000000E+002
 4.7000531E+002, 3.2260974E+002, 4.8000000E+002
 4.8000676E+002, 3.2614374E+002, 4.8000000E+002
 4.9000762E+002, 3.2939578E+002, 4.8000000E+002
 5.0000749E+002, 3.3242004E+002, 4.8000000E+002
 5.1000298E+002, 3.3562833E+002, 4.8000000E+002
 5.2000058E+002, 3.3845697E+002, 4.8000000E+002
 5.3000267E+002, 3.4101715E+002, 4.8000000E+002
 5.4000495E+002, 3.4396051E+002, 4.8000000E+002
 5.5000397E+002, 3.4689514E+002, 4.8000000E+002
 5.6000870E+002, 3.4944379E+002, 4.8000000E+002
 5.7000765E+002, 3.5201526E+002, 4.8000000E+002
 5.8000851E+002, 3.5448663E+002, 4.8000000E+002
 5.9000113E+002, 3.5710315E+002, 4.8000000E+002
 6.0000676E+002, 3.5999469E+002, 4.8000000E+002
 6.1000147E+002, 3.6306528E+002, 4.8000000E+002
 6.2000001E+002, 3.6596930E+002, 4.8000000E+002
 6.3000792E+002, 3.6906610E+002, 4.8000000E+002
 6.4000583E+002, 3.7241150E+002, 4.8000000E+002
 6.5000739E+002, 3.7542581E+002, 4.8000000E+002
 6.6000492E+002, 3.7837091E+002, 4.8000000E+002
 6.7000258E+002, 3.8127942E+002, 4.8000000E+002
 6.8000452E+002, 3.8411609E+002, 4.8000000E+002
 6.9000014E+002, 3.8695557E+002, 4.8000000E+002
 7.0000532E+002, 3.8993884E+002, 4.8000000E+002
 7.1000026E+002, 3.9272565E+002, 4.8000000E+002
 7.2000025E+002, 3.9528928E+002, 4.8000000E+002
 7.3000216E+002, 3.9757968E+002, 4.8000000E+002
 7.4000160E+002, 3.9986591E+002, 4.8000000E+002
 7.5000006E+002, 4.0216916E+002, 4.8000000E+002
 7.6000021E+002, 4.0440036E+002, 4.8000000E+002
 7.7000472E+002, 4.0660931E+002, 4.8000000E+002
 7.8000441E+002, 4.0872202E+002, 4.8000000E+002
 7.9000512E+002, 4.1072617E+002, 4.8000000E+002
 8.0000578E+002, 4.1257675E+002, 4.8000000E+002
 8.1000266E+002, 4.1439874E+002, 4.8000000E+002
 8.2000150E+002, 4.1606589E+002, 4.8000000E+002
 8.3000350E+002, 4.1767004E+002, 4.8000000E+002
 8.4000424E+002, 4.1920966E+002, 4.8000000E+002
 8.5000263E+002, 4.2076962E+002, 4.8000000E+002
 8.6000267E+002, 4.2217200E+002, 4.8000000E+002
 8.7000659E+002, 4.2357462E+002, 4.8000000E+002
 8.8000203E+002, 4.2495593E+002, 4.8000000E+002
 8.9000642E+002, 4.2623529E+002, 4.8000000E+002
 9.0000616E+002, 4.2750961E+002, 4.8000000E+002
 9.1000621E+002, 4.2875555E+002, 4.8000000E+002
 9.2000160E+002, 4.2985785E+002, 4.8000000E+002
 9.3000496E+002, 4.3085123E+002, 4.8000000E+002
 9.4000299E+002, 4.3186441E+002, 4.8000000E+002
 9.5000424E+002, 4.3293091E+002, 4.8000000E+002
 9.6000677E+002, 4.3392932E+002, 4.8000000E+002
 9.7000368E+002, 4.3486804E+002, 4.8000000E+002
 9.8000523E+002, 4.3579248E+002, 4.8000000E+002
 9.9000059E+002, 4.3665143E+002, 4.8000000E+002
 1.0000057E+003, 4.3745032E+002, 4.8000000E+002
 1.0100062E+003, 4.3818253E+002, 4.8000000E+002
 1.0200040E+003, 4.3893146E+002, 4.8000000E+002
 1.0300037E+003, 4.3969708E+002, 4.8000000E+002
 1.0400028E+003, 4.4049457E+002, 4.8000000E+002
 1.0500067E+003, 4.4111569E+002, 4.8000000E+002
 1.0600034E+003, 4.4175287E+002, 4.8000000E+002
 1.0700031E+003, 4.4240952E+002, 4.8000000E+002
 1.0800010E+003, 4.4298300E+002, 4.8000000E+002
 1.0900039E+003, 4.4353867E+002, 4.8000000E+002
 1.1000020E+003, 4.4417911E+002, 4.8000000E+002
 1.1100061E+003, 4.4477264E+002, 4.8000000E+002
 1.1200049E+003, 4.4519366E+002, 4.8000000E+002
 1.1300050E+003, 4.4567105E+002, 4.8000000E+002
 1.1400041E+003, 4.4611908E+002, 4.8000000E+002
 1.1500010E+003, 4.4653867E+002, 4.8000000E+002
 1.1600007E+003, 4.4696021E+002, 4.8000000E+002
 1.1700034E+003, 4.4737082E+002, 4.8000000E+002
 1.1800016E+003, 4.4772147E+002, 4.8000000E+002
 1.1900045E+003, 4.4812817E+002, 4.8000000E+002
 1.2000060E+003, 4.4854120E+002, 4.8000000E+002
 1.2100013E+003, 4.4888507E+002, 4.8000000E+002
 1.2200053E+003, 4.4921252E+002, 4.8000000E+002
 1.2300067E+003, 4.4957547E+002, 4.8000000E+002
 1.2400039E+003, 4.4990561E+002, 4.8000000E+002
 1.2500051E+003, 4.5022028E+002, 4.8000000E+002
 1.2600053E+003, 4.5045880E+002, 4.8000000E+002
 1.2700064E+003, 4.5082678E+002, 4.8000000E+002
 1.2800045E+003, 4.5109888E+002, 4.8000000E+002
 1.2900011E+003, 4.5138077E+002, 4.8000000E+002
 1.3000051E+003, 4.5161459E+002, 4.8000000E+002
 1.3100066E+003, 4.5184885E+002, 4.8000000E+002
 1.3200067E+003, 4.5206674E+002, 4.8000000E+002
 1.3300068E+003, 4.5233133E+002, 4.8000000E+002
 1.3400045E+003, 4.5252292E+002, 4.8000000E+002
 1.3500016E+003, 4.5276959E+002, 4.8000000E+002
 1.3600066E+003, 4.5292856E+002, 4.8000000E+002
 1.3700020E+003, 4.5307162E+002, 4.8000000E+002
 1.3800001E+003, 4.5330975E+002, 4.8000000E+002
 1.3900055E+003, 4.5349234E+002, 4.8000000E+002
 1.4000040E+003, 4.5368878E+002, 4.8000000E+002
 1.4100001E+003, 4.5384598E+002, 4.8000000E+002
 1.4200066E+003, 4.5396887E+002, 4.7924335E+002
 1.4300003E+003, 4.5367526E+002, 4.7396918E+002
 1.4400001E+003, 4.5271509E+002, 4.6794452E+002
 1.4500025E+003, 4.5139877E+002, 4.6191711E+002
 1.4600008E+003, 4.4982321E+002, 4.5589035E+002
 1.4700040E+003, 4.4806030E+002, 4.4986310E+002
 1.4800038E+003, 4.4607642E+002, 4.4383557E+002
 1.4900030E+003, 4.4395474E+002, 4.3780923E+002
 1.5000054E+003, 4.4163864E+002, 4.3178201E+002
 1.5100073E+003, 4.3925146E+002, 4.2575406E+002
 1.5200037E+003, 4.3678961E+002, 4.1972797E+002
 1.5300051E+003, 4.3422223E+002, 4.1370181E+002
 1.5400021E+003, 4.3159338E+002, 4.0767563E+002
 1.5500023E+003, 4.2889740E+002, 4.0164978E+002
 1.5600032E+003, 4.2614566E+002, 3.9562289E+002
 1.5700003E+003, 4.2337036E+002, 3.8959680E+002
 1.5800021E+003, 4.2057669E+002, 3.8357040E+002
 1.5900069E+003, 4.1754794E+002, 3.7754172E+002
 1.6000002E+003, 4.1450995E+002, 3.7151559E+002
 1.6100064E+003, 4.1146365E+002, 3.6548917E+002
 1.6200047E+003, 4.0827490E+002, 3.5946100E+002
 1.6300037E+003, 4.0506253E+002, 3.5343515E+002
 1.6400058E+003, 4.0188809E+002, 3.4740817E+002
 1.6500017E+003, 3.9874747E+002, 3.4138208E+002
 1.6600015E+003, 3.9550003E+002, 3.3535672E+002
 1.6700054E+003, 3.9222357E+002, 3.2932889E+002
 1.6800039E+003, 3.8881540E+002, 3.2330145E+002
 1.6900047E+003, 3.8548120E+002, 3.1727493E+002
 1.7000065E+003, 3.8206848E+002, 3.1124753E+002
 1.7100032E+003, 3.7870694E+002, 3.0522128E+002
 1.7200002E+003, 3.7526627E+002, 2.9995139E+002
 1.7300026E+003, 3.7192944E+002, 2.9920001E+002
 1.7400041E+003, 3.6903662E+002, 2.9920001E+002
 1.7500069E+003, 3.6640115E+002, 2.9920001E+002
 1.7600034E+003, 3.6389655E+002, 2.9920001E+002
 1.7700051E+003, 3.6158350E+002, 2.9920001E+002
 1.7800048E+003, 3.5931894E+002, 2.9920001E+002
 1.7900082E+003, 3.5719769E+002, 2.9920001E+002
 1.8000022E+003, 3.5514398E+002, 2.9920001E+002
