s,C,C
Time,"Cable Temp","Shroud Temp"
 0.000E+00, 2.000E+01, 2.000E+01
 1.503E+01, 2.014E+01, 6.669E+01
 3.000E+01, 2.208E+01, 1.589E+02
 4.500E+01, 2.813E+01, 2.510E+02
 6.002E+01, 4.030E+01, 3.219E+02
 7.500E+01, 5.429E+01, 3.234E+02
 9.002E+01, 6.526E+01, 3.196E+02
 1.050E+02, 7.425E+01, 3.158E+02
 1.200E+02, 8.194E+01, 3.120E+02
 1.350E+02, 8.857E+01, 3.081E+02
 1.500E+02, 9.443E+01, 3.052E+02
 1.650E+02, 9.987E+01, 3.050E+02
 1.800E+02, 1.051E+02, 3.050E+02
 1.950E+02, 1.102E+02, 3.050E+02
 2.100E+02, 1.151E+02, 3.050E+02
 2.250E+02, 1.199E+02, 3.050E+02
 2.401E+02, 1.245E+02, 3.050E+02
 2.550E+02, 1.291E+02, 3.050E+02
 2.700E+02, 1.335E+02, 3.050E+02
 2.850E+02, 1.377E+02, 3.050E+02
 3.000E+02, 1.419E+02, 3.050E+02
 3.150E+02, 1.460E+02, 3.050E+02
 3.300E+02, 1.499E+02, 3.050E+02
 3.450E+02, 1.537E+02, 3.050E+02
 3.600E+02, 1.574E+02, 3.050E+02
 3.750E+02, 1.611E+02, 3.050E+02
 3.900E+02, 1.646E+02, 3.050E+02
 4.050E+02, 1.680E+02, 3.050E+02
 4.200E+02, 1.714E+02, 3.050E+02
 4.350E+02, 1.746E+02, 3.050E+02
 4.500E+02, 1.777E+02, 3.050E+02
 4.650E+02, 1.808E+02, 3.050E+02
 4.800E+02, 1.838E+02, 3.050E+02
 4.950E+02, 1.867E+02, 3.050E+02
 5.100E+02, 1.895E+02, 3.050E+02
 5.250E+02, 1.922E+02, 3.050E+02
 5.400E+02, 1.949E+02, 3.050E+02
 5.550E+02, 1.974E+02, 3.050E+02
 5.700E+02, 1.999E+02, 3.050E+02
 5.850E+02, 2.023E+02, 3.050E+02
 6.001E+02, 2.047E+02, 3.050E+02
 6.150E+02, 2.070E+02, 3.050E+02
 6.300E+02, 2.091E+02, 3.050E+02
 6.450E+02, 2.112E+02, 3.050E+02
 6.600E+02, 2.133E+02, 3.050E+02
 6.750E+02, 2.153E+02, 3.050E+02
 6.900E+02, 2.173E+02, 3.050E+02
 7.050E+02, 2.191E+02, 3.050E+02
 7.200E+02, 2.209E+02, 3.050E+02
 7.350E+02, 2.227E+02, 3.050E+02
 7.501E+02, 2.244E+02, 3.050E+02
 7.650E+02, 2.261E+02, 3.050E+02
 7.800E+02, 2.277E+02, 3.050E+02
 7.951E+02, 2.292E+02, 3.050E+02
 8.100E+02, 2.307E+02, 3.050E+02
 8.250E+02, 2.322E+02, 3.050E+02
 8.400E+02, 2.336E+02, 3.050E+02
 8.550E+02, 2.349E+02, 3.050E+02
 8.700E+02, 2.362E+02, 3.050E+02
 8.850E+02, 2.374E+02, 3.050E+02
 9.000E+02, 2.387E+02, 3.050E+02
 9.150E+02, 2.399E+02, 3.050E+02
 9.300E+02, 2.410E+02, 3.050E+02
 9.450E+02, 2.421E+02, 3.050E+02
 9.600E+02, 2.432E+02, 3.050E+02
 9.750E+02, 2.442E+02, 3.050E+02
 9.900E+02, 2.452E+02, 3.050E+02
 1.005E+03, 2.462E+02, 3.050E+02
 1.020E+03, 2.472E+02, 3.050E+02
 1.035E+03, 2.481E+02, 3.050E+02
 1.050E+03, 2.490E+02, 3.050E+02
 1.065E+03, 2.499E+02, 3.050E+02
 1.080E+03, 2.507E+02, 3.050E+02
 1.095E+03, 2.515E+02, 3.050E+02
 1.110E+03, 2.522E+02, 3.050E+02
 1.125E+03, 2.530E+02, 3.050E+02
 1.140E+03, 2.537E+02, 3.050E+02
 1.155E+03, 2.544E+02, 3.050E+02
 1.170E+03, 2.551E+02, 3.050E+02
 1.185E+03, 2.557E+02, 3.050E+02
 1.200E+03, 2.564E+02, 3.050E+02
 1.215E+03, 2.570E+02, 3.050E+02
 1.230E+03, 2.576E+02, 3.050E+02
 1.245E+03, 2.581E+02, 3.050E+02
 1.260E+03, 2.586E+02, 3.050E+02
 1.275E+03, 2.591E+02, 3.050E+02
 1.290E+03, 2.596E+02, 3.050E+02
 1.305E+03, 2.601E+02, 3.050E+02
 1.320E+03, 2.606E+02, 3.050E+02
 1.335E+03, 2.611E+02, 3.050E+02
 1.350E+03, 2.616E+02, 3.050E+02
 1.365E+03, 2.620E+02, 3.050E+02
 1.380E+03, 2.624E+02, 3.050E+02
 1.395E+03, 2.627E+02, 3.050E+02
 1.410E+03, 2.631E+02, 3.050E+02
 1.425E+03, 2.635E+02, 3.050E+02
 1.440E+03, 2.639E+02, 3.050E+02
 1.455E+03, 2.642E+02, 3.050E+02
 1.470E+03, 2.645E+02, 3.050E+02
 1.485E+03, 2.648E+02, 3.050E+02
 1.500E+03, 2.652E+02, 3.050E+02
 1.515E+03, 2.655E+02, 3.050E+02
 1.530E+03, 2.658E+02, 3.050E+02
 1.545E+03, 2.662E+02, 3.050E+02
 1.560E+03, 2.664E+02, 3.050E+02
 1.575E+03, 2.666E+02, 3.050E+02
 1.590E+03, 2.669E+02, 3.050E+02
 1.605E+03, 2.671E+02, 3.050E+02
 1.620E+03, 2.673E+02, 3.050E+02
 1.635E+03, 2.675E+02, 3.050E+02
 1.650E+03, 2.678E+02, 3.050E+02
 1.665E+03, 2.680E+02, 3.050E+02
 1.680E+03, 2.681E+02, 3.050E+02
 1.695E+03, 2.683E+02, 3.050E+02
 1.710E+03, 2.685E+02, 3.050E+02
 1.725E+03, 2.687E+02, 3.050E+02
 1.740E+03, 2.689E+02, 3.050E+02
 1.755E+03, 2.690E+02, 3.050E+02
 1.770E+03, 2.692E+02, 3.050E+02
 1.785E+03, 2.694E+02, 3.050E+02
 1.800E+03, 2.695E+02, 3.050E+02
 1.815E+03, 2.697E+02, 3.050E+02
 1.830E+03, 2.698E+02, 3.050E+02
 1.845E+03, 2.700E+02, 3.050E+02
 1.860E+03, 2.701E+02, 3.050E+02
 1.875E+03, 2.702E+02, 3.050E+02
 1.890E+03, 2.703E+02, 3.050E+02
 1.905E+03, 2.704E+02, 3.050E+02
 1.920E+03, 2.706E+02, 3.050E+02
 1.935E+03, 2.707E+02, 3.050E+02
 1.950E+03, 2.707E+02, 3.050E+02
 1.965E+03, 2.709E+02, 3.050E+02
 1.980E+03, 2.710E+02, 3.050E+02
 1.995E+03, 2.711E+02, 3.050E+02
 2.010E+03, 2.712E+02, 3.050E+02
 2.025E+03, 2.713E+02, 3.050E+02
 2.040E+03, 2.713E+02, 3.050E+02
 2.055E+03, 2.714E+02, 3.050E+02
 2.070E+03, 2.715E+02, 3.050E+02
 2.085E+03, 2.715E+02, 3.050E+02
 2.100E+03, 2.717E+02, 3.040E+02
 2.115E+03, 2.714E+02, 2.996E+02
 2.130E+03, 2.708E+02, 2.949E+02
 2.145E+03, 2.700E+02, 2.903E+02
 2.160E+03, 2.690E+02, 2.856E+02
 2.175E+03, 2.677E+02, 2.810E+02
 2.190E+03, 2.663E+02, 2.763E+02
 2.205E+03, 2.649E+02, 2.717E+02
 2.220E+03, 2.633E+02, 2.670E+02
 2.235E+03, 2.617E+02, 2.624E+02
 2.250E+03, 2.600E+02, 2.577E+02
 2.265E+03, 2.582E+02, 2.531E+02
 2.280E+03, 2.563E+02, 2.484E+02
 2.295E+03, 2.544E+02, 2.438E+02
 2.310E+03, 2.524E+02, 2.392E+02
 2.325E+03, 2.505E+02, 2.348E+02
 2.340E+03, 2.485E+02, 2.338E+02
 2.355E+03, 2.468E+02, 2.338E+02
 2.370E+03, 2.453E+02, 2.338E+02
 2.385E+03, 2.439E+02, 2.338E+02
 2.400E+03, 2.426E+02, 2.338E+02
