s,C,C,C
Time,"Cable Temp","Shroud Temp","Conduit"
 0.000E+00, 3.100E+01, 3.100E+01, 3.100E+01
 1.506E+01, 3.099E+01, 7.164E+01, 3.110E+01
 3.007E+01, 3.100E+01, 1.518E+02, 3.174E+01
 4.501E+01, 3.106E+01, 2.319E+02, 3.358E+01
 6.002E+01, 3.120E+01, 3.073E+02, 3.729E+01
 7.505E+01, 3.159E+01, 3.250E+02, 4.255E+01
 9.001E+01, 3.189E+01, 3.250E+02, 4.786E+01
 1.050E+02, 3.234E+01, 3.250E+02, 5.309E+01
 1.200E+02, 3.303E+01, 3.250E+02, 5.825E+01
 1.350E+02, 3.374E+01, 3.250E+02, 6.335E+01
 1.501E+02, 3.451E+01, 3.250E+02, 6.834E+01
 1.650E+02, 3.523E+01, 3.250E+02, 7.325E+01
 1.800E+02, 3.618E+01, 3.250E+02, 7.806E+01
 1.950E+02, 3.716E+01, 3.250E+02, 8.282E+01
 2.100E+02, 3.800E+01, 3.250E+02, 8.752E+01
 2.250E+02, 3.900E+01, 3.250E+02, 9.215E+01
 2.400E+02, 4.002E+01, 3.250E+02, 9.671E+01
 2.550E+02, 4.112E+01, 3.250E+02, 1.011E+02
 2.700E+02, 4.230E+01, 3.250E+02, 1.055E+02
 2.850E+02, 4.364E+01, 3.250E+02, 1.098E+02
 3.000E+02, 4.496E+01, 3.250E+02, 1.140E+02
 3.150E+02, 4.623E+01, 3.250E+02, 1.182E+02
 3.300E+02, 4.766E+01, 3.250E+02, 1.222E+02
 3.450E+02, 4.924E+01, 3.250E+02, 1.262E+02
 3.600E+02, 5.081E+01, 3.250E+02, 1.301E+02
 3.750E+02, 5.235E+01, 3.250E+02, 1.339E+02
 3.900E+02, 5.399E+01, 3.250E+02, 1.377E+02
 4.050E+02, 5.569E+01, 3.250E+02, 1.414E+02
 4.200E+02, 5.744E+01, 3.250E+02, 1.450E+02
 4.350E+02, 5.918E+01, 3.250E+02, 1.485E+02
 4.500E+02, 6.105E+01, 3.250E+02, 1.519E+02
 4.650E+02, 6.288E+01, 3.250E+02, 1.553E+02
 4.800E+02, 6.482E+01, 3.250E+02, 1.586E+02
 4.950E+02, 6.679E+01, 3.250E+02, 1.619E+02
 5.100E+02, 6.879E+01, 3.250E+02, 1.651E+02
 5.250E+02, 7.083E+01, 3.250E+02, 1.682E+02
 5.400E+02, 7.293E+01, 3.250E+02, 1.713E+02
 5.550E+02, 7.502E+01, 3.250E+02, 1.743E+02
 5.700E+02, 7.720E+01, 3.250E+02, 1.772E+02
 5.850E+02, 7.947E+01, 3.250E+02, 1.802E+02
 6.000E+02, 8.171E+01, 3.250E+02, 1.830E+02
 6.150E+02, 8.393E+01, 3.250E+02, 1.858E+02
 6.300E+02, 8.621E+01, 3.250E+02, 1.885E+02
 6.450E+02, 8.862E+01, 3.250E+02, 1.912E+02
 6.601E+02, 9.104E+01, 3.250E+02, 1.938E+02
 6.750E+02, 9.348E+01, 3.250E+02, 1.964E+02
 6.900E+02, 9.595E+01, 3.250E+02, 1.989E+02
 7.050E+02, 9.836E+01, 3.250E+02, 2.013E+02
 7.200E+02, 1.008E+02, 3.250E+02, 2.037E+02
 7.350E+02, 1.033E+02, 3.250E+02, 2.060E+02
 7.500E+02, 1.058E+02, 3.250E+02, 2.082E+02
 7.651E+02, 1.083E+02, 3.250E+02, 2.105E+02
 7.800E+02, 1.109E+02, 3.250E+02, 2.126E+02
 7.950E+02, 1.134E+02, 3.250E+02, 2.148E+02
 8.100E+02, 1.160E+02, 3.250E+02, 2.168E+02
 8.250E+02, 1.186E+02, 3.250E+02, 2.189E+02
 8.400E+02, 1.212E+02, 3.250E+02, 2.209E+02
 8.550E+02, 1.238E+02, 3.250E+02, 2.228E+02
 8.700E+02, 1.264E+02, 3.250E+02, 2.247E+02
 8.850E+02, 1.289E+02, 3.250E+02, 2.266E+02
 9.000E+02, 1.314E+02, 3.250E+02, 2.283E+02
 9.150E+02, 1.339E+02, 3.250E+02, 2.300E+02
 9.300E+02, 1.364E+02, 3.250E+02, 2.316E+02
 9.450E+02, 1.390E+02, 3.250E+02, 2.333E+02
 9.600E+02, 1.415E+02, 3.250E+02, 2.349E+02
 9.750E+02, 1.441E+02, 3.250E+02, 2.365E+02
 9.900E+02, 1.466E+02, 3.250E+02, 2.380E+02
 1.005E+03, 1.489E+02, 3.250E+02, 2.394E+02
 1.020E+03, 1.515E+02, 3.250E+02, 2.409E+02
 1.035E+03, 1.541E+02, 3.250E+02, 2.423E+02
 1.050E+03, 1.566E+02, 3.250E+02, 2.437E+02
 1.065E+03, 1.589E+02, 3.250E+02, 2.450E+02
 1.080E+03, 1.613E+02, 3.250E+02, 2.463E+02
 1.095E+03, 1.635E+02, 3.250E+02, 2.474E+02
 1.110E+03, 1.658E+02, 3.250E+02, 2.486E+02
 1.125E+03, 1.681E+02, 3.250E+02, 2.497E+02
 1.140E+03, 1.705E+02, 3.250E+02, 2.509E+02
 1.155E+03, 1.728E+02, 3.250E+02, 2.521E+02
 1.170E+03, 1.752E+02, 3.250E+02, 2.532E+02
 1.185E+03, 1.773E+02, 3.250E+02, 2.542E+02
 1.200E+03, 1.793E+02, 3.250E+02, 2.551E+02
 1.215E+03, 1.814E+02, 3.250E+02, 2.561E+02
 1.230E+03, 1.836E+02, 3.250E+02, 2.570E+02
 1.245E+03, 1.858E+02, 3.250E+02, 2.579E+02
 1.260E+03, 1.879E+02, 3.250E+02, 2.589E+02
 1.275E+03, 1.899E+02, 3.250E+02, 2.597E+02
 1.290E+03, 1.919E+02, 3.250E+02, 2.606E+02
 1.305E+03, 1.940E+02, 3.250E+02, 2.615E+02
 1.320E+03, 1.961E+02, 3.250E+02, 2.623E+02
 1.335E+03, 1.981E+02, 3.250E+02, 2.632E+02
 1.350E+03, 1.999E+02, 3.250E+02, 2.639E+02
 1.365E+03, 2.018E+02, 3.250E+02, 2.647E+02
 1.380E+03, 2.038E+02, 3.250E+02, 2.655E+02
 1.395E+03, 2.057E+02, 3.250E+02, 2.663E+02
 1.410E+03, 2.076E+02, 3.250E+02, 2.670E+02
 1.425E+03, 2.095E+02, 3.250E+02, 2.678E+02
 1.440E+03, 2.113E+02, 3.250E+02, 2.685E+02
 1.455E+03, 2.130E+02, 3.250E+02, 2.692E+02
 1.470E+03, 2.148E+02, 3.250E+02, 2.699E+02
 1.485E+03, 2.166E+02, 3.250E+02, 2.706E+02
 1.500E+03, 2.181E+02, 3.250E+02, 2.712E+02
 1.515E+03, 2.196E+02, 3.250E+02, 2.718E+02
 1.530E+03, 2.212E+02, 3.250E+02, 2.723E+02
 1.545E+03, 2.227E+02, 3.250E+02, 2.729E+02
 1.560E+03, 2.243E+02, 3.250E+02, 2.735E+02
 1.575E+03, 2.258E+02, 3.250E+02, 2.741E+02
 1.590E+03, 2.274E+02, 3.250E+02, 2.746E+02
 1.605E+03, 2.288E+02, 3.250E+02, 2.751E+02
 1.620E+03, 2.301E+02, 3.250E+02, 2.755E+02
 1.635E+03, 2.315E+02, 3.250E+02, 2.760E+02
 1.650E+03, 2.329E+02, 3.250E+02, 2.765E+02
 1.665E+03, 2.343E+02, 3.250E+02, 2.770E+02
 1.680E+03, 2.357E+02, 3.250E+02, 2.775E+02
 1.695E+03, 2.370E+02, 3.250E+02, 2.779E+02
 1.710E+03, 2.384E+02, 3.250E+02, 2.784E+02
 1.725E+03, 2.397E+02, 3.250E+02, 2.789E+02
 1.740E+03, 2.409E+02, 3.250E+02, 2.794E+02
 1.755E+03, 2.421E+02, 3.250E+02, 2.798E+02
 1.770E+03, 2.433E+02, 3.250E+02, 2.802E+02
 1.785E+03, 2.444E+02, 3.250E+02, 2.806E+02
 1.800E+03, 2.454E+02, 3.250E+02, 2.810E+02
 1.815E+03, 2.464E+02, 3.250E+02, 2.812E+02
 1.830E+03, 2.475E+02, 3.250E+02, 2.816E+02
 1.845E+03, 2.486E+02, 3.250E+02, 2.820E+02
 1.860E+03, 2.497E+02, 3.250E+02, 2.823E+02
 1.875E+03, 2.508E+02, 3.250E+02, 2.827E+02
 1.890E+03, 2.517E+02, 3.250E+02, 2.830E+02
 1.905E+03, 2.525E+02, 3.250E+02, 2.832E+02
 1.920E+03, 2.534E+02, 3.250E+02, 2.835E+02
 1.935E+03, 2.543E+02, 3.250E+02, 2.838E+02
 1.950E+03, 2.551E+02, 3.250E+02, 2.840E+02
 1.965E+03, 2.561E+02, 3.250E+02, 2.843E+02
 1.980E+03, 2.571E+02, 3.250E+02, 2.846E+02
 1.995E+03, 2.579E+02, 3.250E+02, 2.849E+02
 2.010E+03, 2.586E+02, 3.250E+02, 2.851E+02
 2.025E+03, 2.595E+02, 3.250E+02, 2.854E+02
 2.040E+03, 2.603E+02, 3.250E+02, 2.857E+02
 2.055E+03, 2.610E+02, 3.250E+02, 2.859E+02
 2.070E+03, 2.616E+02, 3.250E+02, 2.860E+02
 2.085E+03, 2.621E+02, 3.250E+02, 2.860E+02
 2.100E+03, 2.626E+02, 3.250E+02, 2.860E+02
 2.115E+03, 2.633E+02, 3.250E+02, 2.862E+02
 2.130E+03, 2.640E+02, 3.250E+02, 2.864E+02
 2.145E+03, 2.646E+02, 3.250E+02, 2.866E+02
 2.160E+03, 2.654E+02, 3.250E+02, 2.869E+02
 2.175E+03, 2.662E+02, 3.250E+02, 2.872E+02
 2.190E+03, 2.668E+02, 3.250E+02, 2.874E+02
 2.205E+03, 2.674E+02, 3.250E+02, 2.876E+02
 2.220E+03, 2.680E+02, 3.250E+02, 2.878E+02
 2.235E+03, 2.684E+02, 3.250E+02, 2.879E+02
 2.250E+03, 2.690E+02, 3.250E+02, 2.881E+02
 2.265E+03, 2.697E+02, 3.250E+02, 2.883E+02
 2.280E+03, 2.702E+02, 3.250E+02, 2.886E+02
 2.295E+03, 2.708E+02, 3.250E+02, 2.887E+02
 2.310E+03, 2.713E+02, 3.250E+02, 2.889E+02
 2.325E+03, 2.717E+02, 3.250E+02, 2.890E+02
 2.340E+03, 2.719E+02, 3.250E+02, 2.890E+02
 2.355E+03, 2.725E+02, 3.250E+02, 2.892E+02
 2.370E+03, 2.730E+02, 3.250E+02, 2.894E+02
 2.385E+03, 2.734E+02, 3.250E+02, 2.895E+02
 2.400E+03, 2.738E+02, 3.250E+02, 2.896E+02
 2.415E+03, 2.741E+02, 3.250E+02, 2.897E+02
 2.430E+03, 2.744E+02, 3.250E+02, 2.897E+02
 2.445E+03, 2.747E+02, 3.250E+02, 2.897E+02
 2.460E+03, 2.751E+02, 3.250E+02, 2.899E+02
 2.475E+03, 2.755E+02, 3.250E+02, 2.899E+02
 2.490E+03, 2.758E+02, 3.250E+02, 2.900E+02
 2.505E+03, 2.763E+02, 3.250E+02, 2.902E+02
 2.520E+03, 2.767E+02, 3.250E+02, 2.903E+02
 2.535E+03, 2.770E+02, 3.250E+02, 2.904E+02
 2.550E+03, 2.773E+02, 3.250E+02, 2.905E+02
 2.565E+03, 2.778E+02, 3.250E+02, 2.906E+02
 2.580E+03, 2.782E+02, 3.250E+02, 2.908E+02
 2.595E+03, 2.784E+02, 3.250E+02, 2.909E+02
 2.610E+03, 2.787E+02, 3.250E+02, 2.910E+02
 2.625E+03, 2.791E+02, 3.250E+02, 2.911E+02
 2.640E+03, 2.794E+02, 3.250E+02, 2.912E+02
 2.655E+03, 2.795E+02, 3.250E+02, 2.913E+02
 2.670E+03, 2.799E+02, 3.250E+02, 2.914E+02
 2.685E+03, 2.800E+02, 3.250E+02, 2.914E+02
 2.700E+03, 2.801E+02, 3.250E+02, 2.914E+02
 2.715E+03, 2.805E+02, 3.250E+02, 2.915E+02
 2.730E+03, 2.808E+02, 3.250E+02, 2.916E+02
 2.745E+03, 2.812E+02, 3.250E+02, 2.918E+02
 2.760E+03, 2.815E+02, 3.250E+02, 2.919E+02
 2.775E+03, 2.815E+02, 3.250E+02, 2.919E+02
 2.790E+03, 2.816E+02, 3.250E+02, 2.919E+02
 2.805E+03, 2.820E+02, 3.250E+02, 2.920E+02
 2.820E+03, 2.820E+02, 3.250E+02, 2.920E+02
 2.835E+03, 2.822E+02, 3.250E+02, 2.921E+02
 2.850E+03, 2.825E+02, 3.250E+02, 2.922E+02
 2.865E+03, 2.825E+02, 3.250E+02, 2.922E+02
 2.880E+03, 2.827E+02, 3.250E+02, 2.922E+02
 2.895E+03, 2.829E+02, 3.250E+02, 2.923E+02
 2.910E+03, 2.828E+02, 3.250E+02, 2.922E+02
 2.925E+03, 2.831E+02, 3.250E+02, 2.923E+02
 2.940E+03, 2.835E+02, 3.250E+02, 2.924E+02
 2.955E+03, 2.838E+02, 3.250E+02, 2.925E+02
 2.970E+03, 2.839E+02, 3.250E+02, 2.926E+02
 2.985E+03, 2.841E+02, 3.250E+02, 2.927E+02
 3.000E+03, 2.842E+02, 3.250E+02, 2.927E+02
 3.015E+03, 2.843E+02, 3.250E+02, 2.928E+02
 3.030E+03, 2.845E+02, 3.250E+02, 2.929E+02
 3.045E+03, 2.848E+02, 3.250E+02, 2.930E+02
 3.060E+03, 2.850E+02, 3.250E+02, 2.931E+02
 3.075E+03, 2.852E+02, 3.250E+02, 2.931E+02
 3.090E+03, 2.853E+02, 3.250E+02, 2.932E+02
 3.105E+03, 2.856E+02, 3.250E+02, 2.933E+02
 3.120E+03, 2.857E+02, 3.250E+02, 2.933E+02
 3.135E+03, 2.854E+02, 3.250E+02, 2.932E+02
 3.150E+03, 2.856E+02, 3.250E+02, 2.932E+02
 3.165E+03, 2.859E+02, 3.250E+02, 2.933E+02
 3.180E+03, 2.861E+02, 3.250E+02, 2.935E+02
 3.195E+03, 2.863E+02, 3.250E+02, 2.936E+02
 3.210E+03, 2.864E+02, 3.250E+02, 2.936E+02
 3.225E+03, 2.865E+02, 3.250E+02, 2.936E+02
 3.240E+03, 2.861E+02, 3.250E+02, 2.934E+02
 3.255E+03, 2.862E+02, 3.250E+02, 2.934E+02
 3.270E+03, 2.864E+02, 3.250E+02, 2.935E+02
 3.285E+03, 2.864E+02, 3.250E+02, 2.934E+02
 3.300E+03, 2.864E+02, 3.250E+02, 2.933E+02
 3.315E+03, 2.867E+02, 3.250E+02, 2.934E+02
 3.330E+03, 2.868E+02, 3.250E+02, 2.935E+02
 3.345E+03, 2.869E+02, 3.250E+02, 2.935E+02
 3.360E+03, 2.869E+02, 3.250E+02, 2.935E+02
 3.375E+03, 2.871E+02, 3.139E+02, 2.934E+02
 3.390E+03, 2.872E+02, 2.918E+02, 2.928E+02
 3.405E+03, 2.870E+02, 2.698E+02, 2.914E+02
 3.420E+03, 2.868E+02, 2.478E+02, 2.894E+02
 3.435E+03, 2.863E+02, 2.257E+02, 2.869E+02
 3.450E+03, 2.858E+02, 2.036E+02, 2.840E+02
 3.465E+03, 2.853E+02, 1.828E+02, 2.809E+02
 3.480E+03, 2.841E+02, 1.780E+02, 2.775E+02
 3.495E+03, 2.833E+02, 1.780E+02, 2.744E+02
 3.510E+03, 2.821E+02, 1.780E+02, 2.713E+02
 3.525E+03, 2.810E+02, 1.780E+02, 2.683E+02
 3.540E+03, 2.798E+02, 1.780E+02, 2.654E+02
 3.555E+03, 2.788E+02, 1.780E+02, 2.627E+02
 3.570E+03, 2.775E+02, 1.780E+02, 2.601E+02
 3.585E+03, 2.763E+02, 1.780E+02, 2.575E+02
 3.600E+03, 2.752E+02, 1.780E+02, 2.551E+02
