s,C,C
Time,"Cable Temp","Shroud Temp"
 0.0000000E+000, 2.4000000E+001, 2.4000000E+001
 1.0025171E+001, 2.4002327E+001, 4.8914787E+001
 2.0007189E+001, 2.4066393E+001, 9.8285706E+001
 3.0018877E+001, 2.4360006E+001, 1.4761935E+002
 4.0010671E+001, 2.5058146E+001, 1.9645688E+002
 5.0013467E+001, 2.6334690E+001, 2.4374139E+002
 6.0004286E+001, 2.8389988E+001, 2.9017441E+002
 7.0009301E+001, 3.1452259E+001, 3.1216992E+002
 8.0019319E+001, 3.5381508E+001, 3.2239456E+002
 9.0012008E+001, 3.9753899E+001, 3.2599353E+002
 1.0000759E+002, 4.4257496E+001, 3.2303748E+002
 1.1001054E+002, 4.8632114E+001, 3.2007977E+002
 1.2002124E+002, 5.2772236E+001, 3.1711990E+002
 1.3001699E+002, 5.6630821E+001, 3.1416104E+002
 1.4000649E+002, 6.0205395E+001, 3.1120538E+002
 1.5000229E+002, 6.3570858E+001, 3.0824966E+002
 1.6000701E+002, 6.6730484E+001, 3.0553046E+002
 1.7000013E+002, 6.9707169E+001, 3.0500000E+002
 1.8001579E+002, 7.2533836E+001, 3.0500000E+002
 1.9001151E+002, 7.5253548E+001, 3.0500000E+002
 2.0001591E+002, 7.7898720E+001, 3.0500000E+002
 2.1000265E+002, 8.0510468E+001, 3.0500000E+002
 2.2000977E+002, 8.3068161E+001, 3.0500000E+002
 2.3001305E+002, 8.5564766E+001, 3.0500000E+002
 2.4000825E+002, 8.8007935E+001, 3.0500000E+002
 2.5001268E+002, 9.0420341E+001, 3.0500000E+002
 2.6000159E+002, 9.2771355E+001, 3.0500000E+002
 2.7000525E+002, 9.5084419E+001, 3.0500000E+002
 2.8001185E+002, 9.7356773E+001, 3.0500000E+002
 2.9000023E+002, 9.9577873E+001, 3.0500000E+002
 3.0000975E+002, 1.0178055E+002, 3.0500000E+002
 3.1001535E+002, 1.0398596E+002, 3.0500000E+002
 3.2001743E+002, 1.0615865E+002, 3.0500000E+002
 3.3000635E+002, 1.0826632E+002, 3.0500000E+002
 3.4000391E+002, 1.1033962E+002, 3.0500000E+002
 3.5000667E+002, 1.1243103E+002, 3.0500000E+002
 3.6000365E+002, 1.1450608E+002, 3.0500000E+002
 3.7000127E+002, 1.1654575E+002, 3.0500000E+002
 3.8001605E+002, 1.1856948E+002, 3.0500000E+002
 3.9001273E+002, 1.2053323E+002, 3.0500000E+002
 4.0001157E+002, 1.2246362E+002, 3.0500000E+002
 4.1000215E+002, 1.2436952E+002, 3.0500000E+002
 4.2001243E+002, 1.2626084E+002, 3.0500000E+002
 4.3001385E+002, 1.2813477E+002, 3.0500000E+002
 4.4000702E+002, 1.3000366E+002, 3.0500000E+002
 4.5001424E+002, 1.3186035E+002, 3.0500000E+002
 4.6000943E+002, 1.3370854E+002, 3.0500000E+002
 4.7000389E+002, 1.3557094E+002, 3.0500000E+002
 4.8000575E+002, 1.3739972E+002, 3.0500000E+002
 4.9000812E+002, 1.3920288E+002, 3.0500000E+002
 5.0000262E+002, 1.4100049E+002, 3.0500000E+002
 5.1000359E+002, 1.4283763E+002, 3.0500000E+002
 5.2000128E+002, 1.4469421E+002, 3.0500000E+002
 5.3000904E+002, 1.4650151E+002, 3.0500000E+002
 5.4000540E+002, 1.4826082E+002, 3.0500000E+002
 5.5000040E+002, 1.4999704E+002, 3.0500000E+002
 5.6000368E+002, 1.5170093E+002, 3.0500000E+002
 5.7000247E+002, 1.5337943E+002, 3.0500000E+002
 5.8000837E+002, 1.5505339E+002, 3.0500000E+002
 5.9001020E+002, 1.5670850E+002, 3.0500000E+002
 6.0000674E+002, 1.5834023E+002, 3.0500000E+002
 6.1001092E+002, 1.5995828E+002, 3.0500000E+002
 6.2000749E+002, 1.6150302E+002, 3.0500000E+002
 6.3000775E+002, 1.6302348E+002, 3.0500000E+002
 6.4000274E+002, 1.6451717E+002, 3.0500000E+002
 6.5000701E+002, 1.6602544E+002, 3.0500000E+002
 6.6000820E+002, 1.6752574E+002, 3.0500000E+002
 6.7000465E+002, 1.6900841E+002, 3.0500000E+002
 6.8000628E+002, 1.7047545E+002, 3.0500000E+002
 6.9000275E+002, 1.7192021E+002, 3.0500000E+002
 7.0001101E+002, 1.7336992E+002, 3.0500000E+002
 7.1000618E+002, 1.7483315E+002, 3.0500000E+002
 7.2000161E+002, 1.7629453E+002, 3.0500000E+002
 7.3001258E+002, 1.7772667E+002, 3.0500000E+002
 7.4000118E+002, 1.7913324E+002, 3.0500000E+002
 7.5001119E+002, 1.8054565E+002, 3.0500000E+002
 7.6000551E+002, 1.8196776E+002, 3.0500000E+002
 7.7000007E+002, 1.8338055E+002, 3.0500000E+002
 7.8000725E+002, 1.8478427E+002, 3.0500000E+002
 7.9000728E+002, 1.8615875E+002, 3.0500000E+002
 8.0000625E+002, 1.8752090E+002, 3.0500000E+002
 8.1000987E+002, 1.8887479E+002, 3.0500000E+002
 8.2000515E+002, 1.9025156E+002, 3.0500000E+002
 8.3001207E+002, 1.9166374E+002, 3.0500000E+002
 8.4000384E+002, 1.9308076E+002, 3.0500000E+002
 8.5000041E+002, 1.9447369E+002, 3.0500000E+002
 8.6000411E+002, 1.9582484E+002, 3.0500000E+002
 8.7000453E+002, 1.9717583E+002, 3.0500000E+002
 8.8001035E+002, 1.9862932E+002, 3.0500000E+002
 8.9000248E+002, 2.0016685E+002, 3.0500000E+002
 9.0000235E+002, 2.0175620E+002, 3.0500000E+002
 9.1000735E+002, 2.0335916E+002, 3.0500000E+002
 9.2000696E+002, 2.0492802E+002, 3.0500000E+002
 9.3000008E+002, 2.0646846E+002, 3.0500000E+002
 9.4000437E+002, 2.0797124E+002, 3.0500000E+002
 9.5000944E+002, 2.0943967E+002, 3.0500000E+002
 9.6000692E+002, 2.1089938E+002, 3.0500000E+002
 9.7000674E+002, 2.1234718E+002, 3.0500000E+002
 9.8000750E+002, 2.1377690E+002, 3.0500000E+002
 9.9000457E+002, 2.1516283E+002, 3.0500000E+002
 1.0000011E+003, 2.1651733E+002, 3.0500000E+002
 1.0100095E+003, 2.1786229E+002, 3.0500000E+002
 1.0200021E+003, 2.1919576E+002, 3.0500000E+002
 1.0300000E+003, 2.2052081E+002, 3.0500000E+002
 1.0400028E+003, 2.2183621E+002, 3.0500000E+002
 1.0500012E+003, 2.2315604E+002, 3.0500000E+002
 1.0600012E+003, 2.2445157E+002, 3.0500000E+002
 1.0700021E+003, 2.2571796E+002, 3.0500000E+002
 1.0800041E+003, 2.2696483E+002, 3.0498431E+002
 1.0900022E+003, 2.2818149E+002, 3.0318204E+002
 1.1000041E+003, 2.2935951E+002, 3.0015582E+002
 1.1100003E+003, 2.3045238E+002, 2.9713000E+002
 1.1200025E+003, 2.3144643E+002, 2.9410413E+002
 1.1300064E+003, 2.3236006E+002, 2.9107703E+002
 1.1400011E+003, 2.3320134E+002, 2.8805103E+002
 1.1500009E+003, 2.3396422E+002, 2.8502570E+002
 1.1600023E+003, 2.3464308E+002, 2.8199939E+002
 1.1700008E+003, 2.3524800E+002, 2.7897327E+002
 1.1800062E+003, 2.3575328E+002, 2.7594653E+002
 1.1900029E+003, 2.3617244E+002, 2.7292007E+002
 1.2000030E+003, 2.3654233E+002, 2.6989438E+002
 1.2100001E+003, 2.3685432E+002, 2.6686865E+002
 1.2200027E+003, 2.3710959E+002, 2.6384253E+002
 1.2300083E+003, 2.3731520E+002, 2.6081509E+002
 1.2400036E+003, 2.3748029E+002, 2.5778885E+002
 1.2500061E+003, 2.3759019E+002, 2.5476302E+002
 1.2600044E+003, 2.3763385E+002, 2.5173668E+002
 1.2700068E+003, 2.3762036E+002, 2.4871040E+002
 1.2800033E+003, 2.3756982E+002, 2.4568448E+002
 1.2900003E+003, 2.3747488E+002, 2.4265933E+002
 1.3000068E+003, 2.3734007E+002, 2.3963258E+002
 1.3100066E+003, 2.3716515E+002, 2.3660553E+002
 1.3200084E+003, 2.3695078E+002, 2.3357913E+002
 1.3300071E+003, 2.3669635E+002, 2.3055283E+002
 1.3400073E+003, 2.3640576E+002, 2.2752684E+002
 1.3500077E+003, 2.3608865E+002, 2.2450064E+002
 1.3600082E+003, 2.3572482E+002, 2.2147433E+002
 1.3700084E+003, 2.3531604E+002, 2.1844806E+002
 1.3800019E+003, 2.3487534E+002, 2.1542288E+002
 1.3900026E+003, 2.3440170E+002, 2.1239751E+002
 1.4000048E+003, 2.3390376E+002, 2.0937094E+002
 1.4100089E+003, 2.3337056E+002, 2.0689079E+002
 1.4200005E+003, 2.3280713E+002, 2.0664999E+002
 1.4300096E+003, 2.3222926E+002, 2.0664999E+002
 1.4400073E+003, 2.3165427E+002, 2.0664999E+002
 1.4500073E+003, 2.3108492E+002, 2.0664999E+002
 1.4600087E+003, 2.3052150E+002, 2.0664999E+002
 1.4700094E+003, 2.2997440E+002, 2.0664999E+002
 1.4800060E+003, 2.2944717E+002, 2.0664999E+002
 1.4900038E+003, 2.2892967E+002, 2.0664999E+002
 1.5000091E+003, 2.2841072E+002, 2.0664999E+002
 1.5100061E+003, 2.2789389E+002, 2.0664999E+002
 1.5200026E+003, 2.2738484E+002, 2.0664999E+002
 1.5300042E+003, 2.2688841E+002, 2.0664999E+002
 1.5400082E+003, 2.2640810E+002, 2.0664999E+002
 1.5500047E+003, 2.2594542E+002, 2.0664999E+002
 1.5600090E+003, 2.2549992E+002, 2.0664999E+002
 1.5700053E+003, 2.2506248E+002, 2.0664999E+002
 1.5800066E+003, 2.2463116E+002, 2.0664999E+002
 1.5900044E+003, 2.2420546E+002, 2.0664999E+002
 1.6000035E+003, 2.2378336E+002, 2.0664999E+002
 1.6100038E+003, 2.2336411E+002, 2.0664999E+002
 1.6200035E+003, 2.2294878E+002, 2.0664999E+002
 1.6300055E+003, 2.2253485E+002, 2.0664999E+002
 1.6400042E+003, 2.2212302E+002, 2.0664999E+002
 1.6500102E+003, 2.2171423E+002, 2.0664999E+002
 1.6600055E+003, 2.2131096E+002, 2.0664999E+002
 1.6700014E+003, 2.2091621E+002, 2.0664999E+002
 1.6800056E+003, 2.2052658E+002, 2.0664999E+002
 1.6900060E+003, 2.2014336E+002, 2.0664999E+002
 1.7000017E+003, 2.1976810E+002, 2.0664999E+002
 1.7100012E+003, 2.1939972E+002, 2.0664999E+002
 1.7200085E+003, 2.1903857E+002, 2.0664999E+002
 1.7300062E+003, 2.1868547E+002, 2.0664999E+002
 1.7400088E+003, 2.1834045E+002, 2.0664999E+002
 1.7500015E+003, 2.1800311E+002, 2.0664999E+002
 1.7600108E+003, 2.1767169E+002, 2.0664999E+002
 1.7700104E+003, 2.1734601E+002, 2.0664999E+002
 1.7800082E+003, 2.1702522E+002, 2.0664999E+002
 1.7900030E+003, 2.1670888E+002, 2.0664999E+002
 1.8000093E+003, 2.1639629E+002, 2.0664999E+002
