 Z,TEMPERATURE,W-VELOCITY
 m,C,m/s
 0.20000E-02, 0.77642E+03, 0.11334E-01
 0.23000E-01, 0.82034E+03, 0.50269E+00
 0.44000E-01, 0.89114E+03, 0.92761E+00
 0.65000E-01, 0.93146E+03, 0.13020E+01
 0.86000E-01, 0.95255E+03, 0.16325E+01
 0.10700E+00, 0.96345E+03, 0.19185E+01
 0.12800E+00, 0.96666E+03, 0.21670E+01
 0.14900E+00, 0.96411E+03, 0.23819E+01
 0.17000E+00, 0.95558E+03, 0.25683E+01
 0.19100E+00, 0.94141E+03, 0.27271E+01
 0.21200E+00, 0.92264E+03, 0.28597E+01
 0.23300E+00, 0.89749E+03, 0.29697E+01
 0.25400E+00, 0.86693E+03, 0.30661E+01
 0.27500E+00, 0.83434E+03, 0.31468E+01
 0.29600E+00, 0.79855E+03, 0.32041E+01
 0.31700E+00, 0.75763E+03, 0.32444E+01
 0.33800E+00, 0.71539E+03, 0.32841E+01
 0.35900E+00, 0.67878E+03, 0.33221E+01
 0.38000E+00, 0.64525E+03, 0.33504E+01
 0.40100E+00, 0.61150E+03, 0.33752E+01
 0.42200E+00, 0.57969E+03, 0.33989E+01
 0.44300E+00, 0.55052E+03, 0.34177E+01
 0.46400E+00, 0.52277E+03, 0.34282E+01
 0.48500E+00, 0.49675E+03, 0.34422E+01
 0.50600E+00, 0.47341E+03, 0.34590E+01
 0.52700E+00, 0.45245E+03, 0.34687E+01
 0.54800E+00, 0.43394E+03, 0.34719E+01
 0.56900E+00, 0.41306E+03, 0.34679E+01
 0.59000E+00, 0.39231E+03, 0.34672E+01
 0.61100E+00, 0.37824E+03, 0.34750E+01
 0.63200E+00, 0.36616E+03, 0.34724E+01
 0.65300E+00, 0.35103E+03, 0.34605E+01
 0.67400E+00, 0.33512E+03, 0.34459E+01
 0.69500E+00, 0.32228E+03, 0.34340E+01
 0.71600E+00, 0.31103E+03, 0.34242E+01
 0.73700E+00, 0.29886E+03, 0.34104E+01
 0.75800E+00, 0.28761E+03, 0.33922E+01
 0.77900E+00, 0.27751E+03, 0.33662E+01
 0.80000E+00, 0.26787E+03, 0.33427E+01
 0.82100E+00, 0.25793E+03, 0.33245E+01
 0.84200E+00, 0.24946E+03, 0.33066E+01
 0.86300E+00, 0.24278E+03, 0.32881E+01
 0.88400E+00, 0.23445E+03, 0.32599E+01
 0.90500E+00, 0.22574E+03, 0.32269E+01
 0.92600E+00, 0.21834E+03, 0.31987E+01
 0.94700E+00, 0.21162E+03, 0.31731E+01
 0.96800E+00, 0.20553E+03, 0.31479E+01
 0.98900E+00, 0.19908E+03, 0.31198E+01
 0.10100E+01, 0.19228E+03, 0.30941E+01
 0.10310E+01, 0.18707E+03, 0.30690E+01
 0.10520E+01, 0.18270E+03, 0.30397E+01
 0.10730E+01, 0.17774E+03, 0.30113E+01
 0.10940E+01, 0.17251E+03, 0.29862E+01
 0.11150E+01, 0.16811E+03, 0.29645E+01
 0.11360E+01, 0.16493E+03, 0.29438E+01
 0.11570E+01, 0.16092E+03, 0.29219E+01
 0.11780E+01, 0.15597E+03, 0.28965E+01
 0.11990E+01, 0.15226E+03, 0.28713E+01
 0.12200E+01, 0.14922E+03, 0.28481E+01
 0.12410E+01, 0.14535E+03, 0.28245E+01
 0.12620E+01, 0.14151E+03, 0.28014E+01
 0.12830E+01, 0.13785E+03, 0.27767E+01
 0.13040E+01, 0.13402E+03, 0.27490E+01
 0.13250E+01, 0.13087E+03, 0.27258E+01
 0.13460E+01, 0.12816E+03, 0.27040E+01
 0.13670E+01, 0.12543E+03, 0.26829E+01
 0.13880E+01, 0.12296E+03, 0.26631E+01
 0.14090E+01, 0.12047E+03, 0.26413E+01
 0.14300E+01, 0.11739E+03, 0.26124E+01
 0.14510E+01, 0.11400E+03, 0.25812E+01
 0.14720E+01, 0.11143E+03, 0.25562E+01
 0.14930E+01, 0.10954E+03, 0.25335E+01
 0.15140E+01, 0.10692E+03, 0.25057E+01
 0.15350E+01, 0.10379E+03, 0.24777E+01
 0.15560E+01, 0.10140E+03, 0.24513E+01
 0.15770E+01, 0.99593E+02, 0.24261E+01
 0.15980E+01, 0.97532E+02, 0.24026E+01
 0.16190E+01, 0.95264E+02, 0.23816E+01
 0.16400E+01, 0.93339E+02, 0.23608E+01
 0.16610E+01, 0.91374E+02, 0.23366E+01
 0.16820E+01, 0.89283E+02, 0.23106E+01
 0.17030E+01, 0.87708E+02, 0.22908E+01
 0.17240E+01, 0.86654E+02, 0.22812E+01
 0.17450E+01, 0.85490E+02, 0.22713E+01
 0.17660E+01, 0.84057E+02, 0.22572E+01
 0.17870E+01, 0.82724E+02, 0.22450E+01
 0.18080E+01, 0.81612E+02, 0.22372E+01
 0.18290E+01, 0.80398E+02, 0.22266E+01
 0.18500E+01, 0.78903E+02, 0.22090E+01
 0.18710E+01, 0.77532E+02, 0.21913E+01
 0.18920E+01, 0.76475E+02, 0.21733E+01
 0.19130E+01, 0.75352E+02, 0.21549E+01
 0.19340E+01, 0.74116E+02, 0.21384E+01
 0.19550E+01, 0.72959E+02, 0.21230E+01
 0.19760E+01, 0.71937E+02, 0.21086E+01
 0.19970E+01, 0.70842E+02, 0.20949E+01
 0.20180E+01, 0.69565E+02, 0.20813E+01
 0.20390E+01, 0.68421E+02, 0.20696E+01
 0.20600E+01, 0.67545E+02, 0.20593E+01
 0.20810E+01, 0.66756E+02, 0.20498E+01
 0.21020E+01, 0.65859E+02, 0.20402E+01
 0.21230E+01, 0.64982E+02, 0.20312E+01
 0.21440E+01, 0.64218E+02, 0.20251E+01
 0.21650E+01, 0.63491E+02, 0.20213E+01
 0.21860E+01, 0.62885E+02, 0.20209E+01
 0.22070E+01, 0.62360E+02, 0.20207E+01
 0.22280E+01, 0.61750E+02, 0.20177E+01
 0.22490E+01, 0.61114E+02, 0.20131E+01
 0.22700E+01, 0.60655E+02, 0.20085E+01
 0.22910E+01, 0.60273E+02, 0.20030E+01
 0.23120E+01, 0.59759E+02, 0.19955E+01
 0.23330E+01, 0.59057E+02, 0.19850E+01
 0.23540E+01, 0.58244E+02, 0.19715E+01
 0.23750E+01, 0.57489E+02, 0.19582E+01
 0.23960E+01, 0.56792E+02, 0.19453E+01
 0.24170E+01, 0.56107E+02, 0.19346E+01
 0.24380E+01, 0.55565E+02, 0.19270E+01
 0.24590E+01, 0.55142E+02, 0.19213E+01
 0.24800E+01, 0.54675E+02, 0.19150E+01
 0.25010E+01, 0.54286E+02, 0.19094E+01
 0.25220E+01, 0.53975E+02, 0.19053E+01
 0.25430E+01, 0.53596E+02, 0.19024E+01
 0.25640E+01, 0.53249E+02, 0.18989E+01
 0.25850E+01, 0.52891E+02, 0.18931E+01
 0.26060E+01, 0.52438E+02, 0.18855E+01
 0.26270E+01, 0.51979E+02, 0.18781E+01
 0.26480E+01, 0.51553E+02, 0.18715E+01
 0.26690E+01, 0.51144E+02, 0.18654E+01
 0.26900E+01, 0.50652E+02, 0.18582E+01
 0.27110E+01, 0.50084E+02, 0.18493E+01
 0.27320E+01, 0.49674E+02, 0.18399E+01
 0.27530E+01, 0.49388E+02, 0.18321E+01
 0.27740E+01, 0.49025E+02, 0.18240E+01
 0.27950E+01, 0.48618E+02, 0.18148E+01
 0.28160E+01, 0.48287E+02, 0.18083E+01
 0.28370E+01, 0.48037E+02, 0.18062E+01
 0.28580E+01, 0.47704E+02, 0.18043E+01
 0.28790E+01, 0.47298E+02, 0.18022E+01
 0.29000E+01, 0.46992E+02, 0.18025E+01
 0.29210E+01, 0.46745E+02, 0.18027E+01
 0.29420E+01, 0.46448E+02, 0.18024E+01
 0.29630E+01, 0.46091E+02, 0.18034E+01
 0.29840E+01, 0.45746E+02, 0.18053E+01
 0.30050E+01, 0.45439E+02, 0.18060E+01
 0.30260E+01, 0.45104E+02, 0.18050E+01
 0.30470E+01, 0.44798E+02, 0.18041E+01
 0.30680E+01, 0.44555E+02, 0.18039E+01
 0.30890E+01, 0.44312E+02, 0.18034E+01
 0.31100E+01, 0.44089E+02, 0.18038E+01
 0.31310E+01, 0.43884E+02, 0.18045E+01
 0.31520E+01, 0.43664E+02, 0.18043E+01
 0.31730E+01, 0.43436E+02, 0.18039E+01
 0.31940E+01, 0.43195E+02, 0.18033E+01
 0.32150E+01, 0.42942E+02, 0.18012E+01
 0.32360E+01, 0.42677E+02, 0.17978E+01
 0.32570E+01, 0.42400E+02, 0.17937E+01
 0.32780E+01, 0.42111E+02, 0.17898E+01
 0.32990E+01, 0.41838E+02, 0.17864E+01
 0.33200E+01, 0.41585E+02, 0.17831E+01
 0.33410E+01, 0.41333E+02, 0.17799E+01
 0.33620E+01, 0.41075E+02, 0.17759E+01
 0.33830E+01, 0.40814E+02, 0.17710E+01
 0.34040E+01, 0.40575E+02, 0.17652E+01
 0.34250E+01, 0.40338E+02, 0.17585E+01
 0.34460E+01, 0.40074E+02, 0.17518E+01
 0.34670E+01, 0.39814E+02, 0.17448E+01
 0.34880E+01, 0.39576E+02, 0.17382E+01
 0.35090E+01, 0.39333E+02, 0.17332E+01
 0.35300E+01, 0.39070E+02, 0.17290E+01
 0.35510E+01, 0.38832E+02, 0.17242E+01
 0.35720E+01, 0.38617E+02, 0.17190E+01
 0.35930E+01, 0.38393E+02, 0.17125E+01
 0.36140E+01, 0.38177E+02, 0.17056E+01
 0.36350E+01, 0.37975E+02, 0.16975E+01
 0.36560E+01, 0.37787E+02, 0.16880E+01
 0.36770E+01, 0.37640E+02, 0.16791E+01
 0.36980E+01, 0.37536E+02, 0.16708E+01
 0.37190E+01, 0.37439E+02, 0.16624E+01
 0.37400E+01, 0.37322E+02, 0.16541E+01
 0.37610E+01, 0.37212E+02, 0.16464E+01
 0.37820E+01, 0.37135E+02, 0.16399E+01
 0.38030E+01, 0.37078E+02, 0.16293E+01
 0.38240E+01, 0.36991E+02, 0.16222E+01
 0.38450E+01, 0.36901E+02, 0.16150E+01
 0.38660E+01, 0.36820E+02, 0.16050E+01
 0.38870E+01, 0.36742E+02, 0.15982E+01
 0.39080E+01, 0.36705E+02, 0.15910E+01
 0.39290E+01, 0.36646E+02, 0.15824E+01
 0.39500E+01, 0.36603E+02, 0.15776E+01
