Time (s),Time Adj (s),9.3 cm,18.5 cm,27.6 cm,37.2 cm,46.6 cm,55.9 cm,65.0 cm,,,,,
0,-58,-0.048526242,-0.026231385,-0.053060453,-0.026481457,-0.039388141,-0.037505635,-0.039936675,,,,,
1.0156641,-56.9843359,-0.041032234,-0.042455942,-0.011785608,-0.012439067,-0.029758094,-0.013673331,-0.045272105,,,,,
2.0469537,-55.9530463,-0.020374818,-0.038539885,-0.026451334,-0.030038576,-0.039943696,-0.007390918,-0.044352225,,,,,
3.0001154,-54.9998846,-0.012695642,-0.005900744,-0.013777398,-0.019179639,-0.027906068,-0.020509587,-0.021536264,,,,,
4.0001535,-53.9998465,-0.028053344,-0.070237361,-0.047630697,-0.024796465,-0.035499182,-0.025313137,-0.061092592,,,,,
5.0314431,-52.9685569,-0.034817222,-0.015227185,-0.033149652,-0.027043115,-0.033832445,-0.021618121,-0.012518717,,,,,
6.0314817,-51.9685183,-0.034817222,-0.028842392,-0.008526214,-0.0173073,-0.016422834,0.004990392,-0.024112544,,,,,
7.0002689,-50.9997311,-0.016169635,-0.01709238,-0.013777398,-0.01768177,0.002100963,-0.004249549,-0.029816905,,,,,
8.0315585,-49.9684415,-0.009038664,-0.012242809,-0.019390374,-0.02254977,-0.015496716,-0.00018409,0.002205711,,,,,
9.0003457,-48.9996543,-0.014158392,-0.012802385,-0.028080704,-0.013000798,-0.036980706,-0.00018409,-0.008653784,,,,,
10.0003839,-47.9996161,-0.012329951,0.002307167,-0.013415258,-0.016371118,-0.0080875,0.004620777,-0.010678293,,,,,
11.0004225,-46.9995775,-0.028053344,-0.031639832,-0.014139537,-0.011877334,-0.014014911,0.010349985,-0.009574021,,,,,
12.0004611,-45.9995389,-0.030429899,-0.03909933,-0.014320605,-0.018243474,-0.003826981,0.008501814,0.00772798,,,,,
13.0004992,-44.9995008,-0.020009157,0.013873884,-0.004904518,-0.011877334,-0.037536273,-0.008869171,-0.023928526,,,,,
14.0161633,-43.9838367,-0.020009157,0.00902318,-0.011061309,-0.02517091,-0.03901777,-0.030116436,-0.034600935,,,,,
15.0162015,-42.9837985,-0.010318623,0.002680269,-0.019933546,-0.028915288,-0.02753566,-0.017553431,-0.02356049,,,,,
16.0006146,-41.9993854,-0.016718148,-0.024925859,-0.019571432,-0.036403659,-0.046795314,-0.010901731,-0.027424797,,,,,
17.0319042,-40.9680958,-0.010867171,0.000255133,-0.019390374,-0.007196113,-0.012903545,0.011643726,-0.010494249,,,,,
18.0163169,-39.9836831,-0.017449494,-0.018957544,-0.027899664,-0.019741335,6.31971E-05,-0.00018409,-0.01546332,,,,,
19.0163555,-38.9836445,-0.023848517,-0.049355327,-0.029710041,-0.016371118,-0.016237611,-0.012379928,-0.02356049,,,,,
20.0476451,-37.9523549,-0.011964258,-0.013175435,0.000890515,-0.004761799,-0.00623512,-0.009977846,-0.000555299,,,,,
21.0476832,-36.9523168,-0.00958722,-0.014667621,-0.009069455,-0.003076473,-0.029017288,-0.020694343,-0.001107491,,,,,
22.0320959,-35.9679041,-0.029150223,-0.030334369,-0.014682742,-0.02517091,-0.029943295,0.016634044,-0.013622954,,,,,
23.04776,-34.95224,-0.012329951,-0.012802385,-0.007077554,-0.00232743,-0.00604988,-0.00166246,-0.000923428,,,,,
24.0009217,-33.9990783,-0.010867171,0.009769428,0.006504831,-0.020864717,-0.009569382,0.000185506,-0.008101637,,,,,
25.0478368,-32.9521632,-0.017632329,-0.027350395,-0.00562887,-0.016745592,-0.010495548,0.002218312,0.013986952,,,,,
26.0478754,-31.9521246,-0.017083822,-0.030147873,-0.03876135,-0.026668677,-0.024387136,0.001479105,-0.032760953,,,,,
27.0322881,-30.9677119,-0.004832957,-0.039472292,-0.0125099,-0.034344408,-0.030684096,0.017558207,0.003310138,,,,,
28.0479522,-29.9520478,-0.002821463,-0.040964127,-0.009974849,-0.011877334,0.000618948,0.007762556,-0.022272352,,,,,
29.0479903,-28.9520097,0.016381404,0.039250232,-0.004904518,-0.011502844,0.007288168,0.012567839,-0.006445177,,,,,
30.0324035,-27.9675965,-0.012329951,-0.012242809,-0.014139537,-0.013375283,-0.013274002,-0.003695179,-0.018775885,,,,,
31.0480671,-26.9519329,-0.006478691,-0.029401886,-0.02500298,-0.010379365,-0.020682879,-0.008130047,-0.009205927,,,,,
32.0481057,-25.9518943,0.023332013,0.001747518,0.016828894,0.009470661,0.013216693,0.0243973,0.010121066,,,,,
33.0481439,-24.9518561,0.004310557,0.029173639,0.008315979,0.020146222,0.013216693,0.052868192,0.012882397,,,,,
34.0013056,-23.9986944,-0.054740316,-0.053084548,-0.070071444,-0.069907843,-0.043832503,-0.065948496,-0.069737521,,,,,
35.0013442,-22.9986558,-0.04194617,-0.022128251,-0.023373552,-0.033033955,-0.008457972,-0.024019898,-0.027792818,,,,,
36.0482593,-21.9517407,-0.032440782,-0.034996668,-0.033692736,-0.02517091,-0.033091665,-0.017738193,-0.03073693,,,,,
37.0482979,-20.9517021,-0.028053344,-0.010750591,-0.014139537,-0.005510824,-0.011606938,-0.021987629,-0.01399103,,,,,
38.048336,-19.951664,-0.000809924,-0.030893855,-0.003274705,0.004039635,0.006917646,-0.007021351,-0.025952699,,,,,
39.0483747,-18.9516253,-0.00135853,0.006597907,-0.006715385,-0.006634353,-0.00438271,0.002957525,0.001837571,,,,,
40.0640383,-17.9359617,0.011991819,0.010702246,0.003244861,-0.01524769,-0.006790837,0.023657914,-0.001475618,,,,,
41.0484514,-16.9515486,-0.001724265,-0.007952628,-0.002550333,-0.007570618,0.004879793,0.014600919,0.015827908,,,,,
42.0484896,-15.9515104,-0.012695642,-0.022501269,-0.006172129,0.000294258,0.00191571,0.012752662,-0.012886798,,,,,
43.0016513,-14.9983487,-0.003187192,-0.009444883,-0.007258638,-0.010941106,0.005435567,0.001109503,-0.008653784,,,,,
44.0485663,-13.9514337,-0.034634421,-0.041896513,-0.0125099,-0.037714071,-0.029387691,0.002587918,-0.041408549,,,,,
45.0329795,-12.9670205,-0.016718148,0.016299315,-0.021200933,-0.011315598,-0.009569382,-0.004619128,-0.017487679,,,,,
46.0486431,-11.9513569,-0.001907133,-0.002916119,-0.00236924,-0.004012768,0.006732385,0.006838492,-0.011046381,,,,,
47.0486817,-10.9513183,-0.005198678,0.01294104,0.009402687,0.00797242,-0.000307302,0.01885205,-0.012886798,,,,,
48.0330944,-9.9669056,0.004859197,0.016485889,0.000347214,-0.000642067,0.005065051,0.013122311,-0.001107491,,,,,
49.0487585,-8.9512415,-0.003370056,-0.018024966,-0.017036591,0.003103279,-0.007531789,0.00203351,0.001285365,,,,,
50.0487967,-7.9512033,-0.007575831,-0.018211482,-0.005266695,-0.012064579,-0.01345923,0.003696744,-0.014911214,,,,,
51.0332098,-6.9667902,-0.014158392,-0.011310175,-0.006353215,-0.031910698,0.005991344,-0.003325597,-0.024480578,,,,,
52.0488739,-5.9511261,-0.007941542,-0.034250713,-0.008164051,-0.023298673,-0.017719386,0.015155403,-0.013622954,,,,,
53.0020351,-4.9979649,-0.020374818,0.002307167,0.012300642,-0.004574542,0.010622925,0.006838492,0.003862356,,,,,
54.0489507,-3.9510493,-0.016169635,-0.007952628,0.001796025,-0.008506875,0.009326064,0.01718854,-0.004420574,,,,,
55.0333633,-2.9666367,0.002847533,-0.000491052,-0.016493401,0.005163274,0.003027232,0.005544818,-0.024480578,,,,,
56.0490274,-1.9509726,-0.010501473,-0.007393027,-0.003455797,-0.009443124,-0.009013678,0.008871445,-0.004972743,,,,,
57.0334401,-0.9665599,0.000104426,-0.019517087,-0.007258638,-0.001765645,0.00098945,0.016449212,-0.020616147,,,,,
58.0491042,0.0491042,-0.022751574,-0.054576201,-0.03550299,-0.029102503,-0.025127973,-0.013303789,-0.027792818,,,,,
59.0491424,1.0491424,-0.004832957,0.013500746,-0.004361251,0.013590929,0.005065051,0.008501814,-0.016935586,,,,,
60.0023041,2.0023041,-0.011415716,0.013873884,0.003244861,-0.003076473,-0.0056794,0.031052042,-0.009574021,,,,,
61.0492191,3.0492191,0.001567406,-0.031826325,-0.004723429,-0.009630373,-0.006605598,0.021809475,0.001285365,,,,,
62.0648832,4.0648832,-0.026225182,-0.00888529,-0.030434182,-0.050442973,-0.03327686,-0.00942351,-0.022640393,,,,,
63.0492959,5.0492959,-0.002272866,0.001934067,-0.007620804,-0.021613633,-0.015496716,0.013307135,-0.000555299,,,,,
64.0493345,6.0493345,-0.029515847,-0.03555613,-0.016493401,-0.020864717,6.31971E-05,-0.020694343,-0.031656946,,,,,
65.0493727,7.0493727,-0.038655956,-0.027723396,-0.015588076,-0.024047572,-0.024016716,-0.006466997,-0.027056775,,,,,
66.0494113,8.0494113,-0.004650095,-0.021941741,-0.013777398,-0.006447099,-0.018830705,-0.007390918,-0.004788687,,,,,
67.0494499,9.0494499,-0.035731221,-0.02343381,-0.025546116,-0.006447099,-0.014014911,-0.004988705,0.174288212,,,,,
68.0494881,10.0494881,-0.022020271,-0.042455942,-0.016131272,-0.027043115,-0.017163723,-0.019955315,0.42266164,,,,,
69.0495267,11.0495267,-0.00135853,-0.017278898,-0.006353215,-0.013000798,-0.024572346,-0.003325597,0.332098467,,,,,
70.0183139,12.0183139,-0.034817222,-0.001050687,0.000347214,-0.024234796,-0.015496716,0.011828548,0.141283836,,,,,
71.0496035,13.0496035,-0.017632329,-0.013361959,-0.00236924,-0.030038576,-0.02105331,-0.015705785,0.079179246,,,,,
72.0652671,14.0652671,-0.022020271,-0.016719343,-0.014139537,-0.029664148,-0.012533087,-0.019031521,0.070889524,,,,,
73.0496802,15.0496802,-0.016535311,-0.00888529,-0.029891077,-0.025732575,-0.030313696,0.002957525,0.046024842,,,,,
74.0497184,16.0497184,-0.033903214,-0.003662283,-0.029710041,-0.007945122,-0.02309066,0.002218312,0.132066853,,,,,
75.049757,17.049757,-0.035182823,-0.034996668,-0.031158316,-0.028166423,-0.018645486,-0.002216842,0.215237481,,,,,
76.0497952,18.0497952,-0.020557647,-0.020076627,-0.020476714,-0.020303028,-0.017348944,0.000555104,0.215237481,,,,,
77.0342083,19.0342083,-0.016169635,-0.011683229,-0.004723429,-0.015434928,-0.011977398,-0.004249549,0.344106821,,,,,
78.0498719,20.0498719,-0.018180834,-0.031826325,-0.005266695,-0.035842049,-0.024387136,0.069696055,0.537009386,,,,,
79.0030336,21.0030336,-0.017083822,-0.035742617,-0.027356543,-0.034344408,-0.023646294,0.287812659,0.71695968,,,,,
80.0499487,22.0499487,-0.021837444,-0.008512226,-0.030253147,-0.012439067,-0.010125082,0.442734422,0.819044479,,,,,
81.0031104,23.0031104,-0.026590817,-0.035742617,-0.009974849,-0.030974641,-0.008457972,0.48824015,0.858609544,,,,,
82.0500255,24.0500255,-0.027687714,-0.01709238,-0.020838824,-0.014498731,-0.008457972,0.412286039,0.881650553,,,,,
83.0500641,25.0500641,-0.022020271,-0.030893855,-0.033692736,-0.033033955,-0.004753195,0.328975934,0.905812638,,,,,
84.0657282,26.0657282,-0.017997999,-0.01709238,-0.021925145,-0.044078707,-0.022720235,0.266496596,0.914363816,,,,,
85.0501409,27.0501409,-0.017449494,-0.02399333,-0.019390374,-0.017869005,-0.011977398,0.232401187,0.973686217,,,,,
86.0501795,28.0501795,-0.013244176,-0.001423776,0.001252718,-0.024047572,0.00191571,0.187947941,1.137718746,,,,,
87.0502176,29.0502176,-0.010318623,0.009209742,-0.016674464,0.001792393,-0.010866012,0.165173995,1.330424307,,,,,
88.0502563,30.0502563,-0.020923305,-0.034064223,-0.03876135,-0.016371118,-0.025127973,0.160916079,1.417675155,,,,,
89.0346689,31.0346689,-0.040118288,-0.036675048,-0.011423459,-0.02254977,-0.006605598,0.230733802,1.425713107,,,,,
90.0034561,32.0034561,-0.021837444,-0.00888529,-0.014863809,-0.01524769,-0.004197467,0.298565247,1.562465463,,,,,
91.0347457,33.0347457,-0.045236266,-0.029215388,-0.017579777,-0.035280436,-0.035128798,0.369229954,1.764878522,,,,,
92.0035329,34.0035329,-0.018546501,-0.007952628,-0.022649352,-0.032846747,-0.019756796,0.435492733,1.767130049,,,,,
93.0035715,35.0035715,-0.017997999,-0.016719343,-0.003455797,0.000294258,-0.002159778,0.482852581,1.743304172,,,,,
94.0504866,36.0504866,-0.027504899,-0.018584513,-0.015769142,-0.004574542,-0.010125082,0.500502692,1.710483302,,,,,
95.0505247,37.0505247,-0.026773635,-0.054016833,-0.030434182,-0.048196804,-0.019201142,0.506077116,1.722109934,,,,,
96.0349379,38.0349379,-0.033354805,-0.028842392,-0.035865036,-0.011877334,-0.042536248,0.480066031,1.784768906,,,,,
97.0506015,39.0506015,-0.01342702,-0.018584513,-0.011061309,-0.006634353,-0.026609632,0.482481036,1.907395667,,,,,
98.0506401,40.0506401,-0.014341234,-0.016532825,-0.022649352,-0.011315598,-0.041795525,0.44644833,2.027739183,,,,,
99.0038018,41.0038018,-0.015072599,-0.030893855,-0.021925145,-0.027979206,-0.03327686,0.43827793,2.072531903,,,,,
100.00384,42.00384,-0.015803958,-0.029215388,-0.018485081,-0.033782787,-0.009939849,0.511094386,2.111884581,,,,,
101.0507555,43.0507555,-0.034817222,-0.024925859,-0.012328828,-0.015809405,-0.015496716,0.615218138,2.165197435,,,,,
102.0507936,44.0507936,-0.025311088,-0.026231385,-0.0179419,-0.01000487,-0.011421707,0.700278095,2.273424641,,,,,
103.0508323,45.0508323,-0.051085029,-0.038539885,-0.014682742,-0.037714071,-0.02549839,0.694505673,2.356283201,,,,,
104.0196195,46.0196195,-0.025311088,-0.01709238,-0.032606565,-0.012813554,-0.014385364,0.699719458,2.429955565,,,,,
105.050909,47.050909,-0.030064279,-0.036488562,-0.023192503,-0.011315598,0.014698873,0.741999277,2.471540206,,,,,
106.0353217,48.0353217,-0.03152675,-0.021009188,-0.024278794,-0.030038576,0.051203667,0.816362083,2.52316894,,,,,
107.0509858,49.0509858,-0.008124396,0.004732348,-0.008164051,-0.014873211,0.107929887,0.902914863,2.611174292,,,,,
108.051024,50.051024,-0.013244176,-0.044507155,-0.02572716,-0.00569808,0.086237093,0.927179185,2.624050901,,,,,
109.0510626,51.0510626,-0.030429899,-0.006833423,-0.031701412,-0.022736996,0.089574175,0.98618687,2.599246089,,,,,
110.0511007,52.0511007,-0.020009157,-0.027909896,-0.022830403,-0.030038576,0.109413307,1.033083899,2.643179756,,,,,
111.0042624,53.0042624,-0.034817222,-0.022128251,-0.01812296,-0.014873211,0.086237093,1.054578577,2.715753788,,,,,
112.0199265,54.0199265,-0.027139268,-0.054576201,-0.03405479,-0.046137775,0.106817335,1.065608231,2.738693695,,,,,
113.0512161,55.0512161,-0.04194617,-0.015600227,-0.03550299,-0.052501922,0.09050116,1.052522347,2.807357748,,,,,
114.0512543,56.0512543,-0.030429899,-0.01261586,-0.033692736,-0.043329946,0.088091015,1.091411574,2.892404729,,,,,
115.0512929,57.0512929,-0.023665694,-0.016159786,-0.0179419,-0.012439067,0.114790867,1.131626863,2.967645186,,,,,
116.0513315,58.0513315,-0.03152675,-0.06818662,-0.022830403,-0.025732575,0.101625569,1.196569581,3.056644487,,,,,
117.0513697,59.0513697,-0.04340845,-0.04152356,-0.02500298,-0.052876272,0.106075639,1.27842151,3.027158765,,,,,
118.0201569,60.0201569,-0.018180834,-0.017278898,-0.032606565,-0.020864717,0.126288577,1.34065521,2.967835264,,,,,
119.0514464,61.0514464,-0.028053344,-0.004035363,-0.005266695,-0.01768177,0.184907984,1.426764548,2.959472182,,,,,
120.0514851,62.0514851,-0.033720411,-0.048795933,-0.030253147,-0.02517091,0.209960361,1.498302165,2.995020493,,,,,
121.0515232,63.0515232,0.007602447,0.020963754,0.00523705,-0.003638251,0.230377519,1.584935195,3.091278398,,,,,
122.0046849,64.0046849,-0.009404368,-0.024925859,-0.01812296,-0.008881376,0.239473625,1.573655131,3.219269553,,,,,
123.0516,65.0516,-0.01105002,-0.007019958,-0.031339348,-0.000829331,0.20365035,1.508633711,3.269028031,,,,,
124.0516386,66.0516386,-0.026773635,-0.031826325,-0.026632377,-0.01431149,0.196598402,1.426764548,3.240427945,,,,,
125.0516768,67.0516768,-0.031343942,-0.023060794,-0.021381987,0.002728739,0.230934403,1.463559108,3.232230878,,,,,
126.0360899,68.0360899,-0.017997999,-0.010937119,-0.021744093,-0.026668677,0.258410727,1.590387722,3.303932073,,,,,
127.0048771,69.0048771,-0.026590817,-0.058118798,-0.024097746,-0.020115797,0.298709068,1.77257478,3.376643271,,,,,
128.0049152,70.0049152,-0.047246821,-0.044320682,-0.028080704,-0.013562525,0.387341839,1.855506357,3.44788292,,,,,
129.0518303,71.0518303,0.009248437,-0.004408441,0.023168852,0.048994179,0.507674555,1.915678465,3.555514449,,,,,
130.0518689,72.0518689,-0.033354805,-0.00011796,-0.016674464,0.018460538,0.488323349,1.846267101,3.470813465,,,,,
131.0519071,73.0519071,0.003944798,0.002307167,-0.011061309,0.030635507,0.532798888,1.833823852,3.457245542,,,,,
132.0519457,74.0519457,-0.018912168,-0.019144058,0.00505594,0.017711353,0.53875511,1.850603779,3.527399691,,,,,
133.0676098,75.0676098,-0.009038664,0.006224792,0.007591515,0.031946739,0.558115019,1.914735026,3.583063688,,,,,
134.0676479,76.0676479,-0.012878487,-0.001423776,-0.004361251,0.017711353,0.558487358,1.999305584,3.651781059,,,,,
135.0520611,77.0520611,-0.019095,-0.055135566,-0.030253147,-0.010566613,0.546945433,2.030850637,3.748722544,,,,,
136.0677247,78.0677247,-0.029515847,-0.048236537,-0.021744093,0.011530776,0.54955157,2.052579557,3.826578804,,,,,
137.0677633,79.0677633,-0.02147179,-0.007766095,-0.003455797,0.0325087,0.531868257,2.047477524,3.798190152,,,,,
138.0678015,80.0678015,-0.012878487,-0.00216995,0.002158232,0.029698923,0.577105871,2.086600328,3.827346185,,,,,
139.0053377,81.0053377,-0.016169635,-0.013735007,0.003063755,0.03794114,0.621244107,2.137844182,3.81008164,,,,,
140.0522528,82.0522528,-0.020009157,-0.017651932,-0.027899664,0.018460538,0.629999327,2.179086858,3.788217818,,,,,
141.0054145,83.0054145,-0.023665694,-0.033318262,-0.01812296,0.027263841,0.704353167,2.205961279,3.810657073,,,,,
142.0054531,84.0054531,-0.028418972,-0.008325694,-0.019028258,0.026701907,0.730267502,2.256703369,3.862652567,,,,,
143.0523682,85.0523682,-0.008855811,-0.006460353,0.002339335,0.067168555,0.774839304,2.386146349,3.950208814,,,,,
144.0367808,86.0367808,-0.022385923,-0.00552767,-0.008526214,0.067543316,0.802635756,2.503047408,4.0466929,,,,,
145.0524449,87.0524449,-0.01105002,-0.027350395,-0.029891077,0.045247261,0.763834569,2.591390735,4.091316988,,,,,
146.0524831,88.0524831,-0.017449494,-0.048795933,-0.025546116,0.058736767,0.73418314,2.623519276,4.092663737,,,,,
147.0368962,89.0368962,-0.037559192,-0.00459498,-0.038399316,0.030635507,0.715165612,2.59709321,4.098820553,,,,,
148.0525599,90.0525599,-0.057116173,-0.026977393,-0.034416842,0.04337385,0.733996678,2.553573238,4.104208101,,,,,
149.0525985,91.0525985,-0.032806392,-0.040031732,-0.011785608,0.074101845,0.824467356,2.568964419,4.163491725,,,,,
150.0526371,92.0526371,-0.019095,-0.009258353,-0.007258638,0.07353967,0.910715994,2.585878678,4.204704543,,,,,
151.0526752,93.0526752,-0.020557647,-0.036488562,-0.025184026,0.110649434,0.971615657,2.631315461,4.193725514,,,,,
152.0683393,94.0683393,-0.038655956,-0.034996668,-0.050707602,0.100902214,0.972176238,2.653756935,4.225317798,,,,,
153.0683775,95.0683775,-0.030978326,-0.056067835,-0.011785608,0.104463598,0.97666099,2.740721626,4.244008526,,,,,
154.0527906,96.0527906,-0.011781411,0.012567905,-0.005809956,0.134083811,0.941908896,2.822051576,4.360476542,,,,,
155.0528288,97.0528288,-0.029150223,-0.016159786,-0.03550299,0.090781022,0.87281064,2.875802935,4.394827712,,,,,
156.0528674,98.0528674,-0.018912168,-0.03760747,-0.008707294,0.116648155,0.90642065,2.936453726,4.460091234,,,,,
157.0529056,99.0529056,-0.042311742,-0.042455942,-0.028080704,0.078037152,0.954612703,2.937407673,4.477863191,,,,,
158.0060673,100.0060673,-0.034268818,-0.02399333,-0.015225943,0.156585548,1.04339305,2.9771006,4.490421509,,,,,
159.0529823,101.0529823,-0.034634421,0.002307167,-0.007258638,0.138583787,1.143472849,2.979772852,4.491774044,,,,,
160.0686464,102.0686464,-0.049988415,-0.012802385,-0.015225943,0.166525293,1.207309218,3.01070025,4.522694493,,,,,
161.0061827,103.0061827,-0.010318623,-0.026417887,-0.012328828,0.186595085,1.228284035,3.038581966,4.569481182,,,,,
162.0530977,104.0530977,-0.00958722,-0.04152356,-0.022649352,0.199351638,1.208432768,3.030942303,4.637189473,,,,,
163.0062594,105.0062594,-0.011964258,-0.012802385,-0.003817979,0.197663185,1.185402269,3.063988389,4.67609563,,,,,
164.0531745,106.0531745,-0.01105002,-0.033131771,-0.00399907,0.200664898,1.196261582,3.096281823,4.728964347,,,,,
165.0532131,107.0532131,-0.036645211,-0.015040664,-0.022287249,0.229935926,1.229407798,3.158990069,4.741556559,,,,,
166.0220003,108.0220003,-0.024396984,-0.015600227,-0.006715385,0.195411955,1.251698126,3.213894717,4.743106487,,,,,
167.006413,109.006413,-0.001907133,-0.024552848,-0.007982969,0.236316553,1.296854495,3.221358145,4.771978612,,,,,
168.0064511,110.0064511,-0.022385923,-0.027350395,-0.008164051,0.23931933,1.303226588,3.230353334,4.756669459,,,,,
169.0533667,111.0533667,-0.038655956,-0.018957544,-0.003817979,0.241383787,1.36284221,3.259450155,4.759963621,,,,,
170.0534048,112.0534048,-0.036096818,-0.010377533,-0.032244505,0.240257715,1.39059883,3.314414537,4.854769103,,,,,
171.0534434,113.0534434,-0.015255439,-0.027723396,-0.00562887,0.27911394,1.427368352,3.400277979,4.871452433,,,,,
172.0066047,114.0066047,-0.037559192,-0.033318262,-0.031701412,0.259965662,1.42192719,3.39280009,4.868154329,,,,,
