s,C,C
Time,"Cable Temp","Shroud Temp"
 0.000E+00, 2.400E+01, 2.400E+01
 1.508E+01, 2.401E+01, 6.167E+01
 3.003E+01, 2.430E+01, 1.356E+02
 4.505E+01, 2.562E+01, 2.085E+02
 6.003E+01, 2.879E+01, 2.789E+02
 7.504E+01, 3.447E+01, 3.148E+02
 9.003E+01, 4.204E+01, 3.257E+02
 1.050E+02, 5.012E+01, 3.223E+02
 1.200E+02, 5.777E+01, 3.179E+02
 1.350E+02, 6.476E+01, 3.134E+02
 1.500E+02, 7.103E+01, 3.090E+02
 1.650E+02, 7.670E+01, 3.053E+02
 1.800E+02, 8.183E+01, 3.050E+02
 1.950E+02, 8.665E+01, 3.050E+02
 2.100E+02, 9.129E+01, 3.050E+02
 2.250E+02, 9.580E+01, 3.050E+02
 2.400E+02, 1.001E+02, 3.050E+02
 2.550E+02, 1.043E+02, 3.050E+02
 2.700E+02, 1.084E+02, 3.050E+02
 2.850E+02, 1.124E+02, 3.050E+02
 3.001E+02, 1.163E+02, 3.050E+02
 3.150E+02, 1.201E+02, 3.050E+02
 3.301E+02, 1.238E+02, 3.050E+02
 3.451E+02, 1.274E+02, 3.050E+02
 3.600E+02, 1.309E+02, 3.050E+02
 3.750E+02, 1.342E+02, 3.050E+02
 3.900E+02, 1.376E+02, 3.050E+02
 4.050E+02, 1.408E+02, 3.050E+02
 4.200E+02, 1.441E+02, 3.050E+02
 4.350E+02, 1.472E+02, 3.050E+02
 4.500E+02, 1.502E+02, 3.050E+02
 4.650E+02, 1.531E+02, 3.050E+02
 4.800E+02, 1.561E+02, 3.050E+02
 4.950E+02, 1.589E+02, 3.050E+02
 5.100E+02, 1.617E+02, 3.050E+02
 5.250E+02, 1.644E+02, 3.050E+02
 5.400E+02, 1.670E+02, 3.050E+02
 5.550E+02, 1.695E+02, 3.050E+02
 5.700E+02, 1.719E+02, 3.050E+02
 5.850E+02, 1.743E+02, 3.050E+02
 6.000E+02, 1.767E+02, 3.050E+02
 6.150E+02, 1.790E+02, 3.050E+02
 6.300E+02, 1.812E+02, 3.050E+02
 6.450E+02, 1.834E+02, 3.050E+02
 6.600E+02, 1.855E+02, 3.050E+02
 6.750E+02, 1.876E+02, 3.050E+02
 6.900E+02, 1.896E+02, 3.050E+02
 7.050E+02, 1.916E+02, 3.050E+02
 7.200E+02, 1.936E+02, 3.050E+02
 7.351E+02, 1.955E+02, 3.050E+02
 7.500E+02, 1.974E+02, 3.050E+02
 7.650E+02, 1.991E+02, 3.050E+02
 7.800E+02, 2.007E+02, 3.050E+02
 7.950E+02, 2.023E+02, 3.050E+02
 8.100E+02, 2.039E+02, 3.050E+02
 8.250E+02, 2.056E+02, 3.050E+02
 8.400E+02, 2.072E+02, 3.050E+02
 8.550E+02, 2.087E+02, 3.050E+02
 8.700E+02, 2.103E+02, 3.050E+02
 8.850E+02, 2.117E+02, 3.050E+02
 9.000E+02, 2.132E+02, 3.050E+02
 9.150E+02, 2.145E+02, 3.050E+02
 9.300E+02, 2.157E+02, 3.050E+02
 9.450E+02, 2.169E+02, 3.050E+02
 9.600E+02, 2.181E+02, 3.050E+02
 9.751E+02, 2.194E+02, 3.050E+02
 9.901E+02, 2.206E+02, 3.050E+02
 1.005E+03, 2.218E+02, 3.050E+02
 1.020E+03, 2.230E+02, 3.050E+02
 1.035E+03, 2.241E+02, 3.050E+02
 1.050E+03, 2.251E+02, 3.050E+02
 1.065E+03, 2.263E+02, 3.050E+02
 1.080E+03, 2.273E+02, 3.050E+02
 1.095E+03, 2.283E+02, 3.024E+02
 1.110E+03, 2.292E+02, 2.979E+02
 1.125E+03, 2.299E+02, 2.933E+02
 1.140E+03, 2.303E+02, 2.888E+02
 1.155E+03, 2.306E+02, 2.843E+02
 1.170E+03, 2.306E+02, 2.797E+02
 1.185E+03, 2.304E+02, 2.752E+02
 1.200E+03, 2.301E+02, 2.706E+02
 1.215E+03, 2.298E+02, 2.661E+02
 1.230E+03, 2.293E+02, 2.616E+02
 1.245E+03, 2.288E+02, 2.570E+02
 1.260E+03, 2.281E+02, 2.525E+02
 1.275E+03, 2.273E+02, 2.479E+02
 1.290E+03, 2.263E+02, 2.434E+02
 1.305E+03, 2.254E+02, 2.389E+02
 1.320E+03, 2.244E+02, 2.343E+02
 1.335E+03, 2.233E+02, 2.298E+02
 1.350E+03, 2.222E+02, 2.252E+02
 1.365E+03, 2.210E+02, 2.207E+02
 1.380E+03, 2.198E+02, 2.162E+02
 1.395E+03, 2.186E+02, 2.116E+02
 1.410E+03, 2.172E+02, 2.075E+02
 1.425E+03, 2.157E+02, 2.067E+02
 1.440E+03, 2.142E+02, 2.067E+02
 1.455E+03, 2.128E+02, 2.067E+02
 1.470E+03, 2.117E+02, 2.067E+02
 1.485E+03, 2.105E+02, 2.067E+02
 1.500E+03, 2.093E+02, 2.067E+02
 1.515E+03, 2.082E+02, 2.066E+02
 1.530E+03, 2.071E+02, 2.067E+02
 1.545E+03, 2.062E+02, 2.066E+02
 1.560E+03, 2.052E+02, 2.066E+02
 1.575E+03, 2.043E+02, 2.067E+02
 1.590E+03, 2.036E+02, 2.066E+02
 1.605E+03, 2.028E+02, 2.066E+02
 1.620E+03, 2.021E+02, 2.066E+02
 1.635E+03, 2.013E+02, 2.067E+02
 1.650E+03, 2.006E+02, 2.066E+02
 1.665E+03, 1.998E+02, 2.067E+02
 1.680E+03, 1.992E+02, 2.066E+02
 1.695E+03, 1.984E+02, 2.066E+02
 1.710E+03, 1.976E+02, 2.066E+02
 1.725E+03, 1.969E+02, 2.066E+02
 1.740E+03, 1.963E+02, 2.067E+02
 1.755E+03, 1.957E+02, 2.066E+02
 1.770E+03, 1.951E+02, 2.067E+02
 1.785E+03, 1.945E+02, 2.066E+02
 1.800E+03, 1.940E+02, 2.066E+02
