s,C,C
Time,"Cable Temp","Shroud Temp"
 0.000E+00, 2.400E+01, 2.400E+01
 1.501E+01, 2.401E+01, 5.858E+01
 3.000E+01, 2.429E+01, 1.270E+02
 4.502E+01, 2.545E+01, 1.958E+02
 6.000E+01, 2.806E+01, 2.653E+02
 7.501E+01, 3.275E+01, 3.066E+02
 9.002E+01, 3.926E+01, 3.189E+02
 1.050E+02, 4.638E+01, 3.183E+02
 1.200E+02, 5.326E+01, 3.138E+02
 1.350E+02, 5.953E+01, 3.092E+02
 1.500E+02, 6.518E+01, 3.047E+02
 1.650E+02, 7.031E+01, 3.006E+02
 1.800E+02, 7.498E+01, 3.000E+02
 1.950E+02, 7.936E+01, 3.000E+02
 2.100E+02, 8.356E+01, 3.000E+02
 2.250E+02, 8.762E+01, 3.000E+02
 2.400E+02, 9.153E+01, 3.000E+02
 2.550E+02, 9.528E+01, 3.000E+02
 2.700E+02, 9.896E+01, 3.000E+02
 2.850E+02, 1.025E+02, 3.000E+02
 3.000E+02, 1.060E+02, 3.000E+02
 3.150E+02, 1.095E+02, 3.000E+02
 3.300E+02, 1.128E+02, 3.000E+02
 3.450E+02, 1.161E+02, 3.000E+02
 3.600E+02, 1.193E+02, 3.000E+02
 3.750E+02, 1.223E+02, 3.000E+02
 3.900E+02, 1.253E+02, 3.000E+02
 4.050E+02, 1.282E+02, 3.000E+02
 4.200E+02, 1.310E+02, 3.000E+02
 4.350E+02, 1.338E+02, 3.000E+02
 4.500E+02, 1.366E+02, 3.000E+02
 4.650E+02, 1.393E+02, 3.000E+02
 4.800E+02, 1.421E+02, 3.000E+02
 4.950E+02, 1.448E+02, 3.000E+02
 5.100E+02, 1.474E+02, 3.000E+02
 5.250E+02, 1.499E+02, 3.000E+02
 5.400E+02, 1.522E+02, 3.000E+02
 5.550E+02, 1.546E+02, 3.000E+02
 5.700E+02, 1.570E+02, 3.000E+02
 5.850E+02, 1.593E+02, 3.000E+02
 6.000E+02, 1.616E+02, 3.000E+02
 6.150E+02, 1.639E+02, 3.000E+02
 6.300E+02, 1.661E+02, 3.000E+02
 6.450E+02, 1.683E+02, 3.000E+02
 6.600E+02, 1.703E+02, 3.000E+02
 6.750E+02, 1.722E+02, 3.000E+02
 6.900E+02, 1.742E+02, 3.000E+02
 7.050E+02, 1.760E+02, 3.000E+02
 7.200E+02, 1.779E+02, 3.000E+02
 7.350E+02, 1.798E+02, 3.000E+02
 7.500E+02, 1.816E+02, 3.000E+02
 7.650E+02, 1.833E+02, 3.000E+02
 7.800E+02, 1.849E+02, 3.000E+02
 7.950E+02, 1.865E+02, 3.000E+02
 8.100E+02, 1.881E+02, 3.000E+02
 8.250E+02, 1.898E+02, 3.000E+02
 8.400E+02, 1.914E+02, 3.000E+02
 8.550E+02, 1.931E+02, 3.000E+02
 8.700E+02, 1.947E+02, 3.000E+02
 8.850E+02, 1.961E+02, 3.000E+02
 9.000E+02, 1.975E+02, 3.000E+02
 9.150E+02, 1.988E+02, 3.000E+02
 9.300E+02, 2.002E+02, 3.000E+02
 9.450E+02, 2.015E+02, 3.000E+02
 9.600E+02, 2.028E+02, 3.000E+02
 9.750E+02, 2.039E+02, 3.000E+02
 9.900E+02, 2.052E+02, 3.000E+02
 1.005E+03, 2.063E+02, 3.000E+02
 1.020E+03, 2.072E+02, 3.000E+02
 1.035E+03, 2.082E+02, 3.000E+02
 1.050E+03, 2.091E+02, 3.000E+02
 1.065E+03, 2.102E+02, 3.000E+02
 1.080E+03, 2.113E+02, 3.000E+02
 1.095E+03, 2.124E+02, 3.000E+02
 1.110E+03, 2.134E+02, 3.000E+02
 1.125E+03, 2.142E+02, 3.000E+02
 1.140E+03, 2.149E+02, 3.000E+02
 1.155E+03, 2.157E+02, 3.000E+02
 1.170E+03, 2.166E+02, 3.000E+02
 1.185E+03, 2.176E+02, 3.000E+02
 1.200E+03, 2.184E+02, 3.000E+02
 1.215E+03, 2.190E+02, 3.000E+02
 1.230E+03, 2.197E+02, 3.000E+02
 1.245E+03, 2.206E+02, 3.000E+02
 1.260E+03, 2.214E+02, 3.000E+02
 1.275E+03, 2.222E+02, 3.000E+02
 1.290E+03, 2.230E+02, 3.000E+02
 1.305E+03, 2.236E+02, 3.000E+02
 1.320E+03, 2.243E+02, 3.000E+02
 1.335E+03, 2.250E+02, 3.000E+02
 1.350E+03, 2.256E+02, 3.000E+02
 1.365E+03, 2.262E+02, 3.000E+02
 1.380E+03, 2.268E+02, 3.000E+02
 1.395E+03, 2.274E+02, 3.000E+02
 1.410E+03, 2.280E+02, 3.000E+02
 1.425E+03, 2.287E+02, 3.000E+02
 1.440E+03, 2.291E+02, 3.000E+02
 1.455E+03, 2.296E+02, 3.000E+02
 1.470E+03, 2.301E+02, 3.000E+02
 1.485E+03, 2.304E+02, 3.000E+02
 1.500E+03, 2.308E+02, 2.964E+02
 1.515E+03, 2.311E+02, 2.891E+02
 1.530E+03, 2.311E+02, 2.819E+02
 1.545E+03, 2.308E+02, 2.746E+02
 1.560E+03, 2.304E+02, 2.674E+02
 1.575E+03, 2.297E+02, 2.601E+02
 1.590E+03, 2.288E+02, 2.529E+02
 1.605E+03, 2.276E+02, 2.457E+02
 1.620E+03, 2.263E+02, 2.384E+02
 1.635E+03, 2.250E+02, 2.312E+02
 1.650E+03, 2.237E+02, 2.239E+02
 1.665E+03, 2.222E+02, 2.167E+02
 1.680E+03, 2.205E+02, 2.094E+02
 1.695E+03, 2.188E+02, 2.038E+02
 1.710E+03, 2.171E+02, 2.034E+02
 1.725E+03, 2.154E+02, 2.034E+02
 1.740E+03, 2.137E+02, 2.034E+02
 1.755E+03, 2.122E+02, 2.034E+02
 1.770E+03, 2.107E+02, 2.034E+02
 1.785E+03, 2.094E+02, 2.034E+02
 1.800E+03, 2.082E+02, 2.034E+02
