s,C,C,C
Time,"Cable Temp","Shroud Temp","Conduit"
 0.000E+00, 3.100E+01, 3.100E+01, 3.100E+01
 1.503E+01, 3.100E+01, 6.850E+01, 3.106E+01
 3.003E+01, 3.100E+01, 1.423E+02, 3.162E+01
 4.503E+01, 3.102E+01, 2.163E+02, 3.324E+01
 6.003E+01, 3.107E+01, 2.903E+02, 3.646E+01
 7.500E+01, 3.118E+01, 3.642E+02, 4.202E+01
 9.001E+01, 3.145E+01, 4.381E+02, 5.080E+01
 1.050E+02, 3.185E+01, 4.750E+02, 6.297E+01
 1.200E+02, 3.250E+01, 4.750E+02, 7.574E+01
 1.350E+02, 3.340E+01, 4.750E+02, 8.824E+01
 1.500E+02, 3.427E+01, 4.750E+02, 1.004E+02
 1.650E+02, 3.522E+01, 4.750E+02, 1.124E+02
 1.800E+02, 3.648E+01, 4.750E+02, 1.242E+02
 1.950E+02, 3.795E+01, 4.750E+02, 1.357E+02
 2.100E+02, 3.958E+01, 4.750E+02, 1.470E+02
 2.250E+02, 4.147E+01, 4.750E+02, 1.580E+02
 2.400E+02, 4.352E+01, 4.750E+02, 1.687E+02
 2.550E+02, 4.571E+01, 4.750E+02, 1.792E+02
 2.700E+02, 4.809E+01, 4.750E+02, 1.894E+02
 2.850E+02, 5.068E+01, 4.750E+02, 1.993E+02
 3.000E+02, 5.343E+01, 4.750E+02, 2.090E+02
 3.150E+02, 5.641E+01, 4.750E+02, 2.184E+02
 3.300E+02, 5.961E+01, 4.750E+02, 2.275E+02
 3.450E+02, 6.297E+01, 4.750E+02, 2.364E+02
 3.600E+02, 6.657E+01, 4.750E+02, 2.449E+02
 3.750E+02, 7.032E+01, 4.750E+02, 2.532E+02
 3.900E+02, 7.429E+01, 4.750E+02, 2.613E+02
 4.050E+02, 7.845E+01, 4.750E+02, 2.690E+02
 4.200E+02, 8.277E+01, 4.750E+02, 2.765E+02
 4.350E+02, 8.731E+01, 4.750E+02, 2.837E+02
 4.500E+02, 9.206E+01, 4.750E+02, 2.907E+02
 4.650E+02, 9.698E+01, 4.750E+02, 2.973E+02
 4.800E+02, 1.020E+02, 4.750E+02, 3.037E+02
 4.950E+02, 1.072E+02, 4.750E+02, 3.099E+02
 5.100E+02, 1.126E+02, 4.750E+02, 3.158E+02
 5.250E+02, 1.180E+02, 4.750E+02, 3.214E+02
 5.400E+02, 1.236E+02, 4.750E+02, 3.269E+02
 5.550E+02, 1.292E+02, 4.750E+02, 3.321E+02
 5.700E+02, 1.349E+02, 4.750E+02, 3.371E+02
 5.850E+02, 1.407E+02, 4.750E+02, 3.419E+02
 6.000E+02, 1.464E+02, 4.750E+02, 3.465E+02
 6.150E+02, 1.523E+02, 4.750E+02, 3.509E+02
 6.300E+02, 1.582E+02, 4.750E+02, 3.550E+02
 6.450E+02, 1.642E+02, 4.750E+02, 3.589E+02
 6.600E+02, 1.702E+02, 4.750E+02, 3.627E+02
 6.750E+02, 1.762E+02, 4.750E+02, 3.663E+02
 6.900E+02, 1.821E+02, 4.750E+02, 3.698E+02
 7.050E+02, 1.881E+02, 4.750E+02, 3.730E+02
 7.200E+02, 1.939E+02, 4.750E+02, 3.761E+02
 7.350E+02, 1.998E+02, 4.750E+02, 3.790E+02
 7.500E+02, 2.056E+02, 4.750E+02, 3.819E+02
 7.650E+02, 2.114E+02, 4.750E+02, 3.845E+02
 7.800E+02, 2.171E+02, 4.750E+02, 3.872E+02
 7.950E+02, 2.228E+02, 4.750E+02, 3.897E+02
 8.100E+02, 2.284E+02, 4.750E+02, 3.921E+02
 8.250E+02, 2.339E+02, 4.750E+02, 3.943E+02
 8.400E+02, 2.393E+02, 4.750E+02, 3.963E+02
 8.550E+02, 2.447E+02, 4.750E+02, 3.983E+02
 8.700E+02, 2.499E+02, 4.750E+02, 4.002E+02
 8.850E+02, 2.551E+02, 4.750E+02, 4.020E+02
 9.000E+02, 2.601E+02, 4.750E+02, 4.038E+02
 9.150E+02, 2.651E+02, 4.750E+02, 4.055E+02
 9.300E+02, 2.700E+02, 4.750E+02, 4.070E+02
 9.450E+02, 2.748E+02, 4.750E+02, 4.086E+02
 9.600E+02, 2.795E+02, 4.750E+02, 4.101E+02
 9.750E+02, 2.841E+02, 4.750E+02, 4.114E+02
 9.900E+02, 2.886E+02, 4.750E+02, 4.126E+02
 1.005E+03, 2.930E+02, 4.750E+02, 4.138E+02
 1.020E+03, 2.972E+02, 4.750E+02, 4.150E+02
 1.035E+03, 3.013E+02, 4.750E+02, 4.160E+02
 1.050E+03, 3.053E+02, 4.750E+02, 4.171E+02
 1.065E+03, 3.093E+02, 4.750E+02, 4.183E+02
 1.080E+03, 3.132E+02, 4.750E+02, 4.193E+02
 1.095E+03, 3.170E+02, 4.750E+02, 4.202E+02
 1.110E+03, 3.207E+02, 4.750E+02, 4.211E+02
 1.125E+03, 3.243E+02, 4.750E+02, 4.218E+02
 1.140E+03, 3.277E+02, 4.750E+02, 4.226E+02
 1.155E+03, 3.311E+02, 4.750E+02, 4.234E+02
 1.170E+03, 3.344E+02, 4.750E+02, 4.241E+02
 1.185E+03, 3.375E+02, 4.750E+02, 4.247E+02
 1.200E+03, 3.406E+02, 4.750E+02, 4.256E+02
 1.215E+03, 3.437E+02, 4.750E+02, 4.263E+02
 1.230E+03, 3.467E+02, 4.750E+02, 4.270E+02
 1.245E+03, 3.495E+02, 4.750E+02, 4.276E+02
 1.260E+03, 3.523E+02, 4.750E+02, 4.283E+02
 1.275E+03, 3.551E+02, 4.750E+02, 4.289E+02
 1.290E+03, 3.577E+02, 4.750E+02, 4.295E+02
 1.305E+03, 3.603E+02, 4.750E+02, 4.301E+02
 1.320E+03, 3.628E+02, 4.750E+02, 4.307E+02
 1.335E+03, 3.652E+02, 4.750E+02, 4.312E+02
 1.350E+03, 3.676E+02, 4.750E+02, 4.317E+02
 1.365E+03, 3.698E+02, 4.750E+02, 4.323E+02
 1.380E+03, 3.721E+02, 4.750E+02, 4.327E+02
 1.395E+03, 3.742E+02, 4.750E+02, 4.330E+02
 1.410E+03, 3.762E+02, 4.750E+02, 4.334E+02
 1.425E+03, 3.781E+02, 4.750E+02, 4.337E+02
 1.440E+03, 3.800E+02, 4.750E+02, 4.339E+02
 1.455E+03, 3.818E+02, 4.750E+02, 4.342E+02
 1.470E+03, 3.835E+02, 4.750E+02, 4.345E+02
 1.485E+03, 3.853E+02, 4.750E+02, 4.350E+02
 1.500E+03, 3.870E+02, 4.750E+02, 4.354E+02
 1.515E+03, 3.888E+02, 4.750E+02, 4.358E+02
 1.530E+03, 3.903E+02, 4.750E+02, 4.359E+02
 1.545E+03, 3.916E+02, 4.750E+02, 4.361E+02
 1.560E+03, 3.931E+02, 4.750E+02, 4.364E+02
 1.575E+03, 3.945E+02, 4.750E+02, 4.366E+02
 1.590E+03, 3.959E+02, 4.750E+02, 4.368E+02
 1.605E+03, 3.972E+02, 4.750E+02, 4.370E+02
 1.620E+03, 3.985E+02, 4.750E+02, 4.373E+02
 1.635E+03, 3.998E+02, 4.750E+02, 4.375E+02
 1.650E+03, 4.010E+02, 4.750E+02, 4.377E+02
 1.665E+03, 4.023E+02, 4.750E+02, 4.379E+02
 1.680E+03, 4.035E+02, 4.750E+02, 4.382E+02
 1.695E+03, 4.047E+02, 4.750E+02, 4.384E+02
 1.710E+03, 4.059E+02, 4.750E+02, 4.386E+02
 1.725E+03, 4.069E+02, 4.750E+02, 4.387E+02
 1.740E+03, 4.079E+02, 4.750E+02, 4.390E+02
 1.755E+03, 4.089E+02, 4.750E+02, 4.392E+02
 1.770E+03, 4.099E+02, 4.750E+02, 4.394E+02
 1.785E+03, 4.108E+02, 4.750E+02, 4.395E+02
 1.800E+03, 4.117E+02, 4.750E+02, 4.397E+02
 1.815E+03, 4.125E+02, 4.750E+02, 4.397E+02
 1.830E+03, 4.132E+02, 4.750E+02, 4.398E+02
 1.845E+03, 4.140E+02, 4.750E+02, 4.400E+02
 1.860E+03, 4.148E+02, 4.750E+02, 4.403E+02
 1.875E+03, 4.156E+02, 4.750E+02, 4.404E+02
 1.890E+03, 4.164E+02, 4.750E+02, 4.406E+02
 1.905E+03, 4.171E+02, 4.750E+02, 4.409E+02
 1.920E+03, 4.179E+02, 4.750E+02, 4.411E+02
 1.935E+03, 4.186E+02, 4.750E+02, 4.412E+02
 1.950E+03, 4.192E+02, 4.750E+02, 4.413E+02
 1.965E+03, 4.199E+02, 4.750E+02, 4.413E+02
 1.980E+03, 4.205E+02, 4.750E+02, 4.414E+02
 1.995E+03, 4.211E+02, 4.750E+02, 4.416E+02
 2.010E+03, 4.218E+02, 4.750E+02, 4.418E+02
 2.025E+03, 4.223E+02, 4.750E+02, 4.417E+02
 2.040E+03, 4.227E+02, 4.750E+02, 4.417E+02
 2.055E+03, 4.232E+02, 4.750E+02, 4.417E+02
 2.070E+03, 4.237E+02, 4.750E+02, 4.418E+02
 2.085E+03, 4.242E+02, 4.750E+02, 4.419E+02
 2.100E+03, 4.248E+02, 4.750E+02, 4.421E+02
 2.115E+03, 4.252E+02, 4.750E+02, 4.423E+02
 2.130E+03, 4.258E+02, 4.750E+02, 4.425E+02
 2.145E+03, 4.263E+02, 4.750E+02, 4.427E+02
 2.160E+03, 4.268E+02, 4.750E+02, 4.428E+02
 2.175E+03, 4.272E+02, 4.750E+02, 4.428E+02
 2.190E+03, 4.276E+02, 4.750E+02, 4.430E+02
 2.205E+03, 4.280E+02, 4.750E+02, 4.431E+02
 2.220E+03, 4.284E+02, 4.750E+02, 4.431E+02
 2.235E+03, 4.287E+02, 4.750E+02, 4.430E+02
 2.250E+03, 4.290E+02, 4.750E+02, 4.430E+02
 2.265E+03, 4.293E+02, 4.750E+02, 4.431E+02
 2.280E+03, 4.296E+02, 4.750E+02, 4.432E+02
 2.295E+03, 4.300E+02, 4.750E+02, 4.433E+02
 2.310E+03, 4.304E+02, 4.750E+02, 4.433E+02
 2.325E+03, 4.307E+02, 4.750E+02, 4.434E+02
 2.340E+03, 4.310E+02, 4.750E+02, 4.434E+02
 2.355E+03, 4.313E+02, 4.750E+02, 4.435E+02
 2.370E+03, 4.316E+02, 4.750E+02, 4.437E+02
 2.385E+03, 4.319E+02, 4.750E+02, 4.437E+02
 2.400E+03, 4.321E+02, 4.750E+02, 4.437E+02
 2.415E+03, 4.322E+02, 4.750E+02, 4.437E+02
 2.430E+03, 4.323E+02, 4.750E+02, 4.436E+02
 2.445E+03, 4.324E+02, 4.750E+02, 4.436E+02
 2.460E+03, 4.326E+02, 4.750E+02, 4.437E+02
 2.475E+03, 4.328E+02, 4.750E+02, 4.436E+02
 2.490E+03, 4.329E+02, 4.750E+02, 4.436E+02
 2.505E+03, 4.331E+02, 4.750E+02, 4.437E+02
 2.520E+03, 4.333E+02, 4.750E+02, 4.438E+02
 2.535E+03, 4.335E+02, 4.750E+02, 4.438E+02
 2.550E+03, 4.338E+02, 4.750E+02, 4.439E+02
 2.565E+03, 4.340E+02, 4.750E+02, 4.440E+02
 2.580E+03, 4.342E+02, 4.750E+02, 4.441E+02
 2.595E+03, 4.345E+02, 4.750E+02, 4.441E+02
 2.610E+03, 4.346E+02, 4.750E+02, 4.440E+02
 2.625E+03, 4.347E+02, 4.750E+02, 4.440E+02
 2.640E+03, 4.349E+02, 4.750E+02, 4.442E+02
 2.655E+03, 4.351E+02, 4.750E+02, 4.440E+02
 2.670E+03, 4.351E+02, 4.750E+02, 4.440E+02
 2.685E+03, 4.353E+02, 4.750E+02, 4.440E+02
 2.700E+03, 4.354E+02, 4.750E+02, 4.441E+02
 2.715E+03, 4.355E+02, 4.750E+02, 4.441E+02
 2.730E+03, 4.356E+02, 4.750E+02, 4.441E+02
 2.745E+03, 4.356E+02, 4.750E+02, 4.440E+02
 2.760E+03, 4.356E+02, 4.750E+02, 4.440E+02
 2.775E+03, 4.357E+02, 4.750E+02, 4.439E+02
 2.790E+03, 4.357E+02, 4.750E+02, 4.440E+02
 2.805E+03, 4.359E+02, 4.750E+02, 4.442E+02
 2.820E+03, 4.361E+02, 4.750E+02, 4.442E+02
 2.835E+03, 4.362E+02, 4.750E+02, 4.443E+02
 2.850E+03, 4.364E+02, 4.750E+02, 4.444E+02
 2.865E+03, 4.365E+02, 4.750E+02, 4.444E+02
 2.880E+03, 4.365E+02, 4.750E+02, 4.445E+02
 2.895E+03, 4.366E+02, 4.750E+02, 4.447E+02
 2.910E+03, 4.368E+02, 4.750E+02, 4.447E+02
 2.925E+03, 4.370E+02, 4.750E+02, 4.448E+02
 2.940E+03, 4.372E+02, 4.750E+02, 4.448E+02
 2.955E+03, 4.371E+02, 4.750E+02, 4.447E+02
 2.970E+03, 4.371E+02, 4.750E+02, 4.447E+02
 2.985E+03, 4.370E+02, 4.715E+02, 4.446E+02
 3.000E+03, 4.371E+02, 4.646E+02, 4.442E+02
 3.015E+03, 4.373E+02, 4.576E+02, 4.434E+02
 3.030E+03, 4.373E+02, 4.507E+02, 4.422E+02
 3.045E+03, 4.373E+02, 4.438E+02, 4.406E+02
 3.060E+03, 4.370E+02, 4.368E+02, 4.386E+02
 3.075E+03, 4.366E+02, 4.299E+02, 4.363E+02
 3.090E+03, 4.361E+02, 4.229E+02, 4.339E+02
 3.105E+03, 4.355E+02, 4.160E+02, 4.313E+02
 3.120E+03, 4.349E+02, 4.091E+02, 4.286E+02
 3.135E+03, 4.342E+02, 4.021E+02, 4.257E+02
 3.150E+03, 4.334E+02, 3.952E+02, 4.228E+02
 3.165E+03, 4.326E+02, 3.883E+02, 4.198E+02
 3.180E+03, 4.317E+02, 3.813E+02, 4.166E+02
 3.195E+03, 4.307E+02, 3.744E+02, 4.132E+02
 3.210E+03, 4.295E+02, 3.674E+02, 4.098E+02
 3.225E+03, 4.282E+02, 3.605E+02, 4.063E+02
 3.240E+03, 4.269E+02, 3.536E+02, 4.028E+02
 3.255E+03, 4.255E+02, 3.466E+02, 3.992E+02
 3.270E+03, 4.240E+02, 3.397E+02, 3.954E+02
 3.285E+03, 4.222E+02, 3.328E+02, 3.914E+02
 3.300E+03, 4.203E+02, 3.258E+02, 3.874E+02
 3.315E+03, 4.182E+02, 3.189E+02, 3.835E+02
 3.330E+03, 4.163E+02, 3.119E+02, 3.797E+02
 3.345E+03, 4.145E+02, 3.050E+02, 3.758E+02
 3.360E+03, 4.126E+02, 2.981E+02, 3.717E+02
 3.375E+03, 4.105E+02, 2.911E+02, 3.677E+02
 3.390E+03, 4.081E+02, 2.842E+02, 3.636E+02
 3.405E+03, 4.057E+02, 2.773E+02, 3.595E+02
 3.420E+03, 4.032E+02, 2.703E+02, 3.554E+02
 3.435E+03, 4.008E+02, 2.634E+02, 3.514E+02
 3.450E+03, 3.985E+02, 2.564E+02, 3.473E+02
 3.465E+03, 3.960E+02, 2.530E+02, 3.434E+02
 3.480E+03, 3.938E+02, 2.530E+02, 3.397E+02
 3.495E+03, 3.916E+02, 2.530E+02, 3.362E+02
 3.510E+03, 3.895E+02, 2.530E+02, 3.328E+02
 3.525E+03, 3.873E+02, 2.530E+02, 3.297E+02
 3.540E+03, 3.850E+02, 2.530E+02, 3.264E+02
 3.555E+03, 3.824E+02, 2.530E+02, 3.234E+02
 3.570E+03, 3.802E+02, 2.530E+02, 3.206E+02
 3.585E+03, 3.780E+02, 2.530E+02, 3.180E+02
 3.600E+03, 3.758E+02, 2.530E+02, 3.152E+02
