s,C,C
Time,"Cable Temp","Shroud Temp"
 0.000E+00, 2.400E+01, 2.400E+01
 1.503E+01, 2.401E+01, 7.348E+01
 3.006E+01, 2.435E+01, 1.711E+02
 4.505E+01, 2.605E+01, 2.688E+02
 6.004E+01, 3.052E+01, 3.664E+02
 7.502E+01, 3.953E+01, 4.585E+02
 9.003E+01, 5.453E+01, 4.800E+02
 1.050E+02, 7.269E+01, 4.800E+02
 1.200E+02, 9.073E+01, 4.800E+02
 1.350E+02, 1.076E+02, 4.800E+02
 1.500E+02, 1.233E+02, 4.800E+02
 1.650E+02, 1.377E+02, 4.800E+02
 1.800E+02, 1.510E+02, 4.800E+02
 1.950E+02, 1.634E+02, 4.800E+02
 2.100E+02, 1.750E+02, 4.800E+02
 2.250E+02, 1.859E+02, 4.800E+02
 2.400E+02, 1.963E+02, 4.800E+02
 2.550E+02, 2.060E+02, 4.800E+02
 2.700E+02, 2.152E+02, 4.800E+02
 2.850E+02, 2.241E+02, 4.800E+02
 3.000E+02, 2.325E+02, 4.800E+02
 3.150E+02, 2.405E+02, 4.800E+02
 3.300E+02, 2.481E+02, 4.800E+02
 3.450E+02, 2.554E+02, 4.800E+02
 3.600E+02, 2.624E+02, 4.800E+02
 3.750E+02, 2.692E+02, 4.800E+02
 3.900E+02, 2.757E+02, 4.800E+02
 4.050E+02, 2.819E+02, 4.800E+02
 4.200E+02, 2.879E+02, 4.800E+02
 4.350E+02, 2.936E+02, 4.800E+02
 4.500E+02, 2.991E+02, 4.800E+02
 4.650E+02, 3.044E+02, 4.800E+02
 4.800E+02, 3.095E+02, 4.800E+02
 4.950E+02, 3.144E+02, 4.800E+02
 5.100E+02, 3.192E+02, 4.800E+02
 5.250E+02, 3.238E+02, 4.800E+02
 5.400E+02, 3.282E+02, 4.800E+02
 5.550E+02, 3.324E+02, 4.800E+02
 5.700E+02, 3.364E+02, 4.800E+02
 5.850E+02, 3.402E+02, 4.800E+02
 6.000E+02, 3.439E+02, 4.800E+02
 6.150E+02, 3.475E+02, 4.800E+02
 6.300E+02, 3.511E+02, 4.800E+02
 6.450E+02, 3.546E+02, 4.800E+02
 6.600E+02, 3.580E+02, 4.800E+02
 6.750E+02, 3.611E+02, 4.800E+02
 6.900E+02, 3.642E+02, 4.800E+02
 7.050E+02, 3.671E+02, 4.800E+02
 7.200E+02, 3.699E+02, 4.800E+02
 7.350E+02, 3.727E+02, 4.800E+02
 7.500E+02, 3.754E+02, 4.800E+02
 7.650E+02, 3.779E+02, 4.800E+02
 7.800E+02, 3.803E+02, 4.800E+02
 7.950E+02, 3.825E+02, 4.772E+02
 8.100E+02, 3.844E+02, 4.715E+02
 8.250E+02, 3.859E+02, 4.659E+02
 8.400E+02, 3.869E+02, 4.602E+02
 8.550E+02, 3.876E+02, 4.546E+02
 8.700E+02, 3.880E+02, 4.489E+02
 8.850E+02, 3.881E+02, 4.433E+02
 9.000E+02, 3.878E+02, 4.376E+02
 9.150E+02, 3.873E+02, 4.320E+02
 9.300E+02, 3.867E+02, 4.263E+02
 9.450E+02, 3.858E+02, 4.207E+02
 9.600E+02, 3.846E+02, 4.150E+02
 9.750E+02, 3.833E+02, 4.094E+02
 9.900E+02, 3.820E+02, 4.037E+02
 1.005E+03, 3.805E+02, 3.980E+02
 1.020E+03, 3.789E+02, 3.924E+02
 1.035E+03, 3.771E+02, 3.867E+02
 1.050E+03, 3.750E+02, 3.811E+02
 1.065E+03, 3.729E+02, 3.755E+02
 1.080E+03, 3.708E+02, 3.698E+02
 1.095E+03, 3.685E+02, 3.641E+02
 1.110E+03, 3.662E+02, 3.585E+02
 1.125E+03, 3.639E+02, 3.528E+02
 1.140E+03, 3.616E+02, 3.472E+02
 1.155E+03, 3.590E+02, 3.415E+02
 1.170E+03, 3.562E+02, 3.359E+02
 1.185E+03, 3.536E+02, 3.302E+02
 1.200E+03, 3.509E+02, 3.246E+02
 1.215E+03, 3.482E+02, 3.189E+02
 1.230E+03, 3.455E+02, 3.133E+02
 1.245E+03, 3.427E+02, 3.077E+02
 1.260E+03, 3.399E+02, 3.032E+02
 1.275E+03, 3.370E+02, 2.990E+02
 1.290E+03, 3.341E+02, 2.949E+02
 1.305E+03, 3.312E+02, 2.907E+02
 1.320E+03, 3.284E+02, 2.865E+02
 1.335E+03, 3.256E+02, 2.823E+02
 1.350E+03, 3.228E+02, 2.781E+02
 1.365E+03, 3.199E+02, 2.740E+02
 1.380E+03, 3.170E+02, 2.698E+02
 1.395E+03, 3.142E+02, 2.656E+02
 1.410E+03, 3.114E+02, 2.614E+02
 1.425E+03, 3.086E+02, 2.572E+02
 1.440E+03, 3.059E+02, 2.531E+02
 1.455E+03, 3.031E+02, 2.489E+02
 1.470E+03, 3.005E+02, 2.447E+02
 1.485E+03, 2.980E+02, 2.405E+02
 1.500E+03, 2.954E+02, 2.363E+02
 1.515E+03, 2.927E+02, 2.322E+02
 1.530E+03, 2.901E+02, 2.280E+02
 1.545E+03, 2.874E+02, 2.238E+02
 1.560E+03, 2.848E+02, 2.196E+02
 1.575E+03, 2.821E+02, 2.154E+02
 1.590E+03, 2.793E+02, 2.113E+02
 1.605E+03, 2.766E+02, 2.073E+02
 1.620E+03, 2.739E+02, 2.064E+02
 1.635E+03, 2.713E+02, 2.064E+02
 1.650E+03, 2.688E+02, 2.064E+02
 1.665E+03, 2.664E+02, 2.064E+02
 1.680E+03, 2.641E+02, 2.064E+02
 1.695E+03, 2.619E+02, 2.064E+02
 1.710E+03, 2.597E+02, 2.064E+02
 1.725E+03, 2.576E+02, 2.064E+02
 1.740E+03, 2.555E+02, 2.064E+02
 1.755E+03, 2.535E+02, 2.064E+02
 1.770E+03, 2.514E+02, 2.064E+02
 1.785E+03, 2.496E+02, 2.064E+02
 1.800E+03, 2.479E+02, 2.064E+02
