s,C,kg/m2/s,m
Time,"temp","MLR","thick"
 0.0000000E+000, 2.0000000E+001, 0.0000000E+000, 1.8500000E-002
 5.0100000E+000, 7.9968056E+001, 4.0825331E-014, 1.8500000E-002
 1.0010000E+001, 1.5404034E+002, 1.1364748E-010, 1.8500000E-002
 1.5010000E+001, 2.0417773E+002, 1.3555614E-008, 1.8500000E-002
 2.0000000E+001, 2.4333495E+002, 3.7217205E-007, 1.8500000E-002
 2.5000000E+001, 2.7570224E+002, 4.4085905E-006, 1.8499991E-002
 3.0000000E+001, 3.0317984E+002, 3.0101537E-005, 1.8499928E-002
 3.5000000E+001, 3.2668091E+002, 1.3837169E-004, 1.8499596E-002
 4.0000000E+001, 3.4661307E+002, 4.6658472E-004, 1.8498339E-002
 4.5010000E+001, 3.6297556E+002, 1.2048576E-003, 1.8494720E-002
 5.0010000E+001, 3.7558609E+002, 2.4363997E-003, 1.8486602E-002
 5.5010000E+001, 3.8461429E+002, 3.9846031E-003, 1.8472064E-002
 6.0010000E+001, 3.8894214E+002, 5.2255504E-003, 1.8451154E-002
 6.5010000E+001, 3.9322186E+002, 6.5976838E-003, 1.8423866E-002
 7.0010000E+001, 3.9589926E+002, 7.7220160E-003, 1.8391520E-002
 7.5000000E+001, 3.9748120E+002, 8.5368613E-003, 1.8354766E-002
 8.0000000E+001, 3.9881393E+002, 9.2627620E-003, 1.8314239E-002
 8.5000000E+001, 3.9999295E+002, 9.9403076E-003, 1.8270493E-002
 9.0000000E+001, 4.0096216E+002, 1.0541853E-002, 1.8223925E-002
 9.5000000E+001, 4.0178784E+002, 1.1085925E-002, 1.8174820E-002
 1.0000000E+002, 4.0235864E+002, 1.1515398E-002, 1.8123414E-002
 1.0500000E+002, 4.0292841E+002, 1.1941268E-002, 1.8069925E-002
 1.1000000E+002, 4.0352606E+002, 1.2382482E-002, 1.8014485E-002
 1.1500000E+002, 4.0408939E+002, 1.2805594E-002, 1.7957211E-002
 1.2000000E+002, 4.0461505E+002, 1.3207234E-002, 1.7898196E-002
 1.2500000E+002, 4.0495471E+002, 1.3506560E-002, 1.7837550E-002
 1.3000000E+002, 4.0520410E+002, 1.3765583E-002, 1.7775487E-002
 1.3500000E+002, 4.0570853E+002, 1.4161373E-002, 1.7711930E-002
 1.4000000E+002, 4.0616751E+002, 1.4523393E-002, 1.7646907E-002
 1.4500000E+002, 4.0617581E+002, 1.4633530E-002, 1.7580615E-002
 1.5000000E+002, 4.0667001E+002, 1.5032197E-002, 1.7513057E-002
 1.5500000E+002, 4.0703366E+002, 1.5339275E-002, 1.7444111E-002
 1.6001000E+002, 4.0710373E+002, 1.5486447E-002, 1.7373983E-002
 1.6501000E+002, 4.0759985E+002, 1.5889669E-002, 1.7302576E-002
 1.7001000E+002, 4.0768640E+002, 1.6031625E-002, 1.7230004E-002
 1.7501000E+002, 4.0806113E+002, 1.6377332E-002, 1.7156342E-002
 1.8001000E+002, 4.0827567E+002, 1.6598087E-002, 1.7081359E-002
 1.8501000E+002, 4.0853171E+002, 1.6876996E-002, 1.7005330E-002
 1.9001000E+002, 4.0880066E+002, 1.7138636E-002, 1.6927961E-002
 1.9501000E+002, 4.0901886E+002, 1.7399620E-002, 1.6849542E-002
 2.0001000E+002, 4.0927103E+002, 1.7657777E-002, 1.6769776E-002
 2.0501000E+002, 4.0953650E+002, 1.7958973E-002, 1.6688926E-002
 2.1001000E+002, 4.0971167E+002, 1.8174905E-002, 1.6606720E-002
 2.1501000E+002, 4.1007910E+002, 1.8554650E-002, 1.6523352E-002
 2.2001000E+002, 4.1013809E+002, 1.8704372E-002, 1.6438661E-002
 2.2501000E+002, 4.0978638E+002, 1.8509833E-002, 1.6352922E-002
 2.3001000E+002, 4.0742075E+002, 1.7140850E-002, 1.6273545E-002
 2.3501000E+002, 4.0862521E+002, 1.8626973E-002, 1.6192039E-002
 2.4001000E+002, 4.0910767E+002, 1.9390551E-002, 1.6105525E-002
 2.4501000E+002, 4.0970682E+002, 2.0067226E-002, 1.6015690E-002
 2.5001000E+002, 4.0991608E+002, 2.0431636E-002, 1.5923699E-002
 2.5501000E+002, 4.1028375E+002, 2.0862583E-002, 1.5829699E-002
 2.6001000E+002, 4.1058698E+002, 2.1268096E-002, 1.5734075E-002
 2.6501000E+002, 4.1077719E+002, 2.1575501E-002, 1.5636614E-002
 2.7001000E+002, 4.1120352E+002, 2.2075349E-002, 1.5537477E-002
 2.7501000E+002, 4.1130563E+002, 2.2349784E-002, 1.5436593E-002
 2.8001000E+002, 4.1163437E+002, 2.2788756E-002, 1.5333812E-002
 2.8501000E+002, 4.1201343E+002, 2.3295939E-002, 1.5229234E-002
 2.9001000E+002, 4.1211035E+002, 2.3597540E-002, 1.5122720E-002
 2.9501000E+002, 4.1242966E+002, 2.4073347E-002, 1.5014178E-002
 3.0001000E+002, 4.1276324E+002, 2.4583559E-002, 1.4903631E-002
 3.0501000E+002, 4.1299066E+002, 2.5033602E-002, 1.4791006E-002
 3.1001000E+002, 4.1319327E+002, 2.5464265E-002, 1.4676174E-002
 3.1501000E+002, 4.1348911E+002, 2.5980590E-002, 1.4559142E-002
 3.2001000E+002, 4.1378229E+002, 2.6509292E-002, 1.4439877E-002
 3.2501000E+002, 4.1404172E+002, 2.7025651E-002, 1.4318354E-002
 3.3001000E+002, 4.1420667E+002, 2.7463105E-002, 1.4194524E-002
 3.3501000E+002, 4.1383514E+002, 2.7494462E-002, 1.4068589E-002
 3.4001000E+002, 4.1194940E+002, 2.7360279E-002, 1.3945645E-002
 3.4501000E+002, 4.1271362E+002, 2.8913096E-002, 1.3817093E-002
 3.5001000E+002, 4.1326846E+002, 2.9709198E-002, 1.3683718E-002
 3.5501000E+002, 4.1347635E+002, 3.0109512E-002, 1.3547793E-002
 3.6001000E+002, 4.1380011E+002, 3.0485891E-002, 1.3409927E-002
 3.6501000E+002, 4.1418890E+002, 3.0874822E-002, 1.3270518E-002
 3.7001000E+002, 4.1435297E+002, 3.1094974E-002, 1.3129730E-002
 3.7501000E+002, 4.1466547E+002, 3.1353951E-002, 1.2987668E-002
 3.8001000E+002, 4.1335574E+002, 3.0902877E-002, 1.2846137E-002
 3.8501000E+002, 4.1350439E+002, 3.1679854E-002, 1.2704110E-002
 3.9001000E+002, 4.1408090E+002, 3.2040000E-002, 1.2559138E-002
 3.9501000E+002, 4.1437906E+002, 3.2197896E-002, 1.2413170E-002
 4.0001000E+002, 4.1484616E+002, 3.2362059E-002, 1.2266364E-002
 4.0501000E+002, 4.1521262E+002, 3.2480486E-002, 1.2119032E-002
 4.1001000E+002, 4.1564401E+002, 3.2564104E-002, 1.1971152E-002
 4.1501000E+002, 4.1607431E+002, 3.2661993E-002, 1.1822939E-002
 4.2001000E+002, 4.1433109E+002, 3.2400206E-002, 1.1675371E-002
 4.2501000E+002, 4.1484628E+002, 3.2892533E-002, 1.1526690E-002
 4.3001000E+002, 4.1569745E+002, 3.2951336E-002, 1.1376982E-002
 4.3501000E+002, 4.1654636E+002, 3.2938059E-002, 1.1227238E-002
 4.4001000E+002, 4.1566653E+002, 3.2633241E-002, 1.1078432E-002
 4.4501000E+002, 4.1718527E+002, 3.2757334E-002, 1.0929595E-002
 4.5001000E+002, 4.1888116E+002, 3.2556742E-002, 1.0781076E-002
 4.5501000E+002, 4.2079663E+002, 3.2142300E-002, 1.0633901E-002
 4.6001000E+002, 4.2219904E+002, 3.1272888E-002, 1.0489738E-002
 4.6501000E+002, 4.2760229E+002, 3.0165255E-002, 1.0349786E-002
 4.7001000E+002, 4.3496280E+002, 2.7359283E-002, 1.0218811E-002
 4.7501000E+002, 4.4979822E+002, 2.3626672E-002, 1.0101686E-002
 4.8001000E+002, 5.2029010E+002, 1.0832505E-002, 1.0015391E-002
 4.8501000E+002, 6.2614758E+002, 0.0000000E+000, 9.9999998E-003
 4.9001000E+002, 6.3924127E+002, 0.0000000E+000, 9.9999998E-003
 4.9501000E+002, 6.4633710E+002, 0.0000000E+000, 9.9999998E-003
 5.0001000E+002, 6.5067133E+002, 0.0000000E+000, 9.9999998E-003
 5.0501000E+002, 6.5323370E+002, 0.0000000E+000, 9.9999998E-003
 5.1001000E+002, 6.5470227E+002, 0.0000000E+000, 9.9999998E-003
 5.1501000E+002, 6.5552887E+002, 0.0000000E+000, 9.9999998E-003
 5.2001000E+002, 6.5598883E+002, 0.0000000E+000, 9.9999998E-003
 5.2501000E+002, 6.5624371E+002, 0.0000000E+000, 9.9999998E-003
 5.3001000E+002, 6.5638440E+002, 0.0000000E+000, 9.9999998E-003
 5.3501000E+002, 6.5646210E+002, 0.0000000E+000, 9.9999998E-003
 5.4001000E+002, 6.5650482E+002, 0.0000000E+000, 9.9999998E-003
 5.4501000E+002, 6.5652802E+002, 0.0000000E+000, 9.9999998E-003
 5.5001000E+002, 6.5654089E+002, 0.0000000E+000, 9.9999998E-003
 5.5501000E+002, 6.5654803E+002, 0.0000000E+000, 9.9999998E-003
 5.6001000E+002, 6.5655200E+002, 0.0000000E+000, 9.9999998E-003
 5.6501000E+002, 6.5655408E+002, 0.0000000E+000, 9.9999998E-003
 5.7001000E+002, 6.5655536E+002, 0.0000000E+000, 9.9999998E-003
 5.7501000E+002, 6.5655591E+002, 0.0000000E+000, 9.9999998E-003
 5.8001000E+002, 6.5655707E+002, 0.0000000E+000, 9.9999998E-003
 5.8501000E+002, 6.5655719E+002, 0.0000000E+000, 9.9999998E-003
 5.9001000E+002, 6.5655670E+002, 0.0000000E+000, 9.9999998E-003
 5.9501000E+002, 6.5655670E+002, 0.0000000E+000, 9.9999998E-003
 6.0001000E+002, 6.5655658E+002, 0.0000000E+000, 9.9999998E-003
 6.0501000E+002, 6.5655676E+002, 0.0000000E+000, 9.9999998E-003
 6.1001000E+002, 6.5655695E+002, 0.0000000E+000, 9.9999998E-003
 6.1501000E+002, 6.5655701E+002, 0.0000000E+000, 9.9999998E-003
 6.2001000E+002, 6.5655688E+002, 0.0000000E+000, 9.9999998E-003
 6.2501000E+002, 6.5655701E+002, 0.0000000E+000, 9.9999998E-003
 6.3001000E+002, 6.5655676E+002, 0.0000000E+000, 9.9999998E-003
 6.3501000E+002, 6.5655670E+002, 0.0000000E+000, 9.9999998E-003
 6.4001000E+002, 6.5655743E+002, 0.0000000E+000, 9.9999998E-003
 6.4501000E+002, 6.5655762E+002, 0.0000000E+000, 9.9999998E-003
 6.5001000E+002, 6.5655707E+002, 0.0000000E+000, 9.9999998E-003
 6.5501000E+002, 6.5655701E+002, 0.0000000E+000, 9.9999998E-003
 6.6001000E+002, 6.5655688E+002, 0.0000000E+000, 9.9999998E-003
 6.6501000E+002, 6.5655695E+002, 0.0000000E+000, 9.9999998E-003
 6.7001000E+002, 6.5655682E+002, 0.0000000E+000, 9.9999998E-003
 6.7501000E+002, 6.5655695E+002, 0.0000000E+000, 9.9999998E-003
 6.8001000E+002, 6.5655713E+002, 0.0000000E+000, 9.9999998E-003
 6.8501000E+002, 6.5655695E+002, 0.0000000E+000, 9.9999998E-003
 6.9001000E+002, 6.5655682E+002, 0.0000000E+000, 9.9999998E-003
 6.9501000E+002, 6.5655701E+002, 0.0000000E+000, 9.9999998E-003
 7.0001000E+002, 6.5655707E+002, 0.0000000E+000, 9.9999998E-003
 7.0501000E+002, 6.5655688E+002, 0.0000000E+000, 9.9999998E-003
 7.1001000E+002, 6.5655713E+002, 0.0000000E+000, 9.9999998E-003
 7.1501000E+002, 6.5655688E+002, 0.0000000E+000, 9.9999998E-003
 7.2001000E+002, 6.5655688E+002, 0.0000000E+000, 9.9999998E-003
 7.2501000E+002, 6.5655713E+002, 0.0000000E+000, 9.9999998E-003
 7.3001000E+002, 6.5655682E+002, 0.0000000E+000, 9.9999998E-003
 7.3501000E+002, 6.5655719E+002, 0.0000000E+000, 9.9999998E-003
 7.4001000E+002, 6.5655701E+002, 0.0000000E+000, 9.9999998E-003
 7.4501000E+002, 6.5655688E+002, 0.0000000E+000, 9.9999998E-003
 7.5001000E+002, 6.5655682E+002, 0.0000000E+000, 9.9999998E-003
 7.5501000E+002, 6.5655688E+002, 0.0000000E+000, 9.9999998E-003
 7.6001000E+002, 6.5655676E+002, 0.0000000E+000, 9.9999998E-003
 7.6501000E+002, 6.5655664E+002, 0.0000000E+000, 9.9999998E-003
 7.7001000E+002, 6.5655676E+002, 0.0000000E+000, 9.9999998E-003
 7.7501000E+002, 6.5655664E+002, 0.0000000E+000, 9.9999998E-003
 7.8001000E+002, 6.5655688E+002, 0.0000000E+000, 9.9999998E-003
 7.8501000E+002, 6.5655664E+002, 0.0000000E+000, 9.9999998E-003
 7.9001000E+002, 6.5655688E+002, 0.0000000E+000, 9.9999998E-003
 7.9501000E+002, 6.5655670E+002, 0.0000000E+000, 9.9999998E-003
 8.0001000E+002, 6.5655664E+002, 0.0000000E+000, 9.9999998E-003
