s,kW,C,kg/s,m,kW/m2
Time,"HRR","temp","MLR","thick","flux"
 0.000E+00, 0.000E+00, 2.000E+01, 0.000E+00, 1.900E-02,-4.758E-11
 2.012E+00, 0.000E+00, 4.283E+01, 8.945E-21, 1.900E-02, 5.002E+01
 4.003E+00, 0.000E+00, 7.520E+01, 3.981E-18, 1.900E-02, 5.013E+01
 6.004E+00, 0.000E+00, 9.905E+01, 2.828E-16, 1.900E-02, 5.023E+01
 8.008E+00, 0.000E+00, 1.188E+02, 7.284E-15, 1.900E-02, 5.027E+01
 1.001E+01, 0.000E+00, 1.358E+02, 9.948E-14, 1.900E-02, 5.031E+01
 1.200E+01, 2.467E-09, 1.510E+02, 8.711E-13, 1.900E-02, 5.036E+01
 1.401E+01, 8.604E-08, 1.648E+02, 5.555E-12, 1.900E-02, 5.042E+01
 1.600E+01, 5.129E-07, 1.775E+02, 2.770E-11, 1.900E-02, 5.049E+01
 1.801E+01, 2.084E-06, 1.893E+02, 1.141E-10, 1.900E-02, 5.055E+01
 2.001E+01, 7.545E-06, 2.004E+02, 4.038E-10, 1.900E-02, 5.064E+01
 2.201E+01, 2.368E-05, 2.108E+02, 1.254E-09, 1.900E-02, 5.064E+01
 2.401E+01, 6.659E-05, 2.203E+02, 3.507E-09, 1.900E-02, 5.062E+01
 2.601E+01, 1.708E-04, 2.298E+02, 8.972E-09, 1.900E-02, 5.081E+01
 2.800E+01, 4.051E-04, 2.385E+02, 2.123E-08, 1.900E-02, 5.073E+01
 3.001E+01, 9.023E-04, 2.469E+02, 4.719E-08, 1.900E-02, 5.088E+01
 3.201E+01, 1.895E-03, 2.550E+02, 9.898E-08, 1.900E-02, 5.085E+01
 3.401E+01, 3.783E-03, 2.625E+02, 1.973E-07, 1.900E-02, 5.085E+01
 3.601E+01, 7.236E-03, 2.702E+02, 3.772E-07, 1.900E-02, 5.103E+01
 3.801E+01, 1.333E-02, 2.773E+02, 6.939E-07, 1.900E-02, 5.097E+01
 4.001E+01, 2.368E-02, 2.842E+02, 1.232E-06, 1.900E-02, 5.103E+01
 4.201E+01, 4.087E-02, 2.911E+02, 2.125E-06, 1.900E-02, 5.111E+01
 4.401E+01, 6.863E-02, 2.976E+02, 3.564E-06, 1.900E-02, 5.112E+01
 4.601E+01, 1.123E-01, 3.040E+02, 5.831E-06, 1.900E-02, 5.122E+01
 4.801E+01, 1.798E-01, 3.102E+02, 9.329E-06, 1.900E-02, 5.126E+01
 5.001E+01, 2.823E-01, 3.165E+02, 1.464E-05, 1.900E-02, 5.141E+01
 5.201E+01, 4.351E-01, 3.224E+02, 2.255E-05, 1.900E-02, 5.140E+01
 5.400E+01, 6.594E-01, 3.287E+02, 3.416E-05, 1.900E-02, 5.169E+01
 5.601E+01, 9.854E-01, 3.347E+02, 5.104E-05, 1.900E-02, 5.180E+01
 5.800E+01, 1.455E+00, 3.408E+02, 7.531E-05, 1.900E-02, 5.220E+01
 6.001E+01, 2.123E+00, 3.468E+02, 1.099E-04, 1.900E-02, 5.249E+01
 6.200E+01, 3.072E+00, 3.530E+02, 1.591E-04, 1.900E-02, 5.302E+01
 6.401E+01, 4.429E+00, 3.593E+02, 2.291E-04, 1.900E-02, 5.344E+01
 6.601E+01, 6.350E+00, 3.659E+02, 3.286E-04, 1.900E-02, 5.439E+01
 6.800E+01, 9.103E+00, 3.731E+02, 4.710E-04, 1.900E-02, 5.604E+01
 7.000E+01, 1.317E+01, 3.820E+02, 6.813E-04, 1.899E-02, 5.990E+01
 7.200E+01, 1.945E+01, 3.956E+02, 1.009E-03, 1.899E-02, 7.158E+01
 7.400E+01, 3.032E+01, 4.110E+02, 1.578E-03, 1.898E-02, 7.691E+01
 7.600E+01, 4.880E+01, 4.233E+02, 2.570E-03, 1.897E-02, 8.178E+01
 7.800E+01, 7.960E+01, 4.320E+02, 4.200E-03, 1.894E-02, 8.287E+01
 8.000E+01, 1.254E+02, 4.363E+02, 6.636E-03, 1.890E-02, 8.196E+01
 8.200E+01, 1.859E+02, 4.379E+02, 9.915E-03, 1.886E-02, 8.147E+01
 8.400E+01, 2.680E+02, 4.378E+02, 1.397E-02, 1.881E-02, 7.982E+01
 8.600E+01, 3.560E+02, 4.365E+02, 1.881E-02, 1.876E-02, 8.145E+01
 8.800E+01, 4.481E+02, 4.391E+02, 2.388E-02, 1.871E-02, 8.120E+01
 9.000E+01, 5.547E+02, 4.413E+02, 2.886E-02, 1.865E-02, 8.330E+01
 9.200E+01, 6.583E+02, 4.446E+02, 3.442E-02, 1.859E-02, 8.698E+01
 9.400E+01, 7.344E+02, 4.453E+02, 3.877E-02, 1.852E-02, 8.405E+01
 9.600E+01, 8.043E+02, 4.419E+02, 4.194E-02, 1.845E-02, 8.544E+01
 9.800E+01, 8.480E+02, 4.437E+02, 4.433E-02, 1.838E-02, 8.559E+01
 1.000E+02, 9.010E+02, 4.451E+02, 4.643E-02, 1.831E-02, 8.597E+01
 1.020E+02, 9.190E+02, 4.465E+02, 4.836E-02, 1.823E-02, 8.458E+01
 1.040E+02, 9.680E+02, 4.445E+02, 4.970E-02, 1.815E-02, 8.550E+01
 1.060E+02, 9.753E+02, 4.446E+02, 5.117E-02, 1.807E-02, 8.525E+01
 1.080E+02, 1.027E+03, 4.475E+02, 5.400E-02, 1.799E-02, 8.761E+01
 1.100E+02, 1.066E+03, 4.487E+02, 5.583E-02, 1.790E-02, 8.739E+01
 1.120E+02, 1.101E+03, 4.455E+02, 5.685E-02, 1.781E-02, 8.678E+01
 1.140E+02, 1.105E+03, 4.475E+02, 5.872E-02, 1.771E-02, 8.710E+01
 1.160E+02, 1.194E+03, 4.489E+02, 6.122E-02, 1.762E-02, 8.749E+01
 1.180E+02, 1.195E+03, 4.482E+02, 6.300E-02, 1.752E-02, 8.826E+01
 1.200E+02, 1.236E+03, 4.483E+02, 6.475E-02, 1.741E-02, 8.736E+01
 1.220E+02, 1.263E+03, 4.497E+02, 6.674E-02, 1.730E-02, 8.734E+01
 1.240E+02, 1.314E+03, 4.485E+02, 6.914E-02, 1.719E-02, 8.727E+01
 1.260E+02, 1.361E+03, 4.498E+02, 7.251E-02, 1.708E-02, 8.941E+01
 1.280E+02, 1.388E+03, 4.514E+02, 7.616E-02, 1.695E-02, 8.875E+01
 1.300E+02, 1.480E+03, 4.495E+02, 7.959E-02, 1.682E-02, 8.929E+01
 1.320E+02, 1.522E+03, 4.516E+02, 8.308E-02, 1.669E-02, 8.926E+01
 1.340E+02, 1.573E+03, 4.507E+02, 8.624E-02, 1.655E-02, 8.907E+01
 1.360E+02, 1.609E+03, 4.513E+02, 8.847E-02, 1.641E-02, 8.763E+01
 1.380E+02, 1.630E+03, 4.509E+02, 9.092E-02, 1.626E-02, 8.645E+01
 1.400E+02, 1.690E+03, 4.516E+02, 9.374E-02, 1.611E-02, 8.759E+01
 1.420E+02, 1.716E+03, 4.527E+02, 9.663E-02, 1.596E-02, 8.822E+01
 1.440E+02, 1.781E+03, 4.533E+02, 9.865E-02, 1.581E-02, 8.831E+01
 1.460E+02, 1.824E+03, 4.549E+02, 1.001E-01, 1.565E-02, 8.777E+01
 1.480E+02, 1.801E+03, 4.572E+02, 1.009E-01, 1.550E-02, 8.847E+01
 1.500E+02, 1.786E+03, 4.625E+02, 1.001E-01, 1.535E-02, 8.911E+01
 1.520E+02, 1.737E+03, 4.702E+02, 9.634E-02, 1.521E-02, 8.880E+01
 1.540E+02, 1.701E+03, 4.858E+02, 8.973E-02, 1.509E-02, 8.981E+01
 1.560E+02, 1.416E+03, 6.121E+02, 6.903E-02, 1.501E-02, 8.961E+01
 1.580E+02, 8.872E+02, 7.519E+02, 4.316E-02, 1.500E-02, 8.939E+01
 1.600E+02, 6.163E+02, 7.692E+02, 3.040E-02, 1.500E-02, 9.171E+01
 1.620E+02, 4.879E+02, 7.855E+02, 2.443E-02, 1.500E-02, 9.363E+01
 1.640E+02, 2.925E+02, 7.661E+02, 1.462E-02, 1.500E-02, 8.549E+01
 1.660E+02, 2.248E+02, 7.415E+02, 1.139E-02, 1.500E-02, 7.838E+01
 1.680E+02, 1.634E+02, 6.831E+02, 8.303E-03, 1.500E-02, 6.463E+01
 1.700E+02, 1.362E+02, 6.645E+02, 7.007E-03, 1.500E-02, 6.169E+01
 1.720E+02, 1.197E+02, 6.446E+02, 6.079E-03, 1.500E-02, 5.905E+01
 1.740E+02, 7.201E+01, 6.224E+02, 3.612E-03, 1.500E-02, 5.552E+01
 1.760E+02, 4.484E+01, 6.068E+02, 2.311E-03, 1.500E-02, 5.349E+01
 1.780E+02, 4.215E+01, 6.066E+02, 2.152E-03, 1.500E-02, 5.377E+01
 1.800E+02, 3.780E+01, 6.028E+02, 1.950E-03, 1.500E-02, 5.342E+01
 1.820E+02, 3.166E+01, 6.039E+02, 1.618E-03, 1.500E-02, 5.350E+01
 1.840E+02, 2.106E+01, 6.013E+02, 1.064E-03, 1.500E-02, 5.311E+01
 1.860E+02, 2.051E+00, 5.948E+02, 9.153E-05, 1.500E-02, 5.192E+01
 1.880E+02, 0.000E+00, 6.000E+02, 0.000E+00, 1.500E-02, 5.230E+01
 1.900E+02, 0.000E+00, 5.963E+02, 0.000E+00, 1.500E-02, 5.202E+01
 1.920E+02, 0.000E+00, 5.966E+02, 0.000E+00, 1.500E-02, 5.212E+01
 1.940E+02, 0.000E+00, 5.990E+02, 0.000E+00, 1.500E-02, 5.230E+01
 1.960E+02, 0.000E+00, 6.009E+02, 0.000E+00, 1.500E-02, 5.239E+01
 1.980E+02, 0.000E+00, 5.965E+02, 0.000E+00, 1.500E-02, 5.211E+01
 2.000E+02, 0.000E+00, 5.998E+02, 0.000E+00, 1.500E-02, 5.236E+01
 2.020E+02, 0.000E+00, 5.983E+02, 0.000E+00, 1.500E-02, 5.225E+01
 2.040E+02, 0.000E+00, 6.016E+02, 0.000E+00, 1.500E-02, 5.247E+01
 2.060E+02, 0.000E+00, 6.065E+02, 0.000E+00, 1.500E-02, 5.278E+01
 2.080E+02, 0.000E+00, 6.019E+02, 0.000E+00, 1.500E-02, 5.245E+01
 2.100E+02, 0.000E+00, 6.063E+02, 0.000E+00, 1.500E-02, 5.274E+01
 2.120E+02, 0.000E+00, 6.087E+02, 0.000E+00, 1.500E-02, 5.290E+01
 2.140E+02, 0.000E+00, 6.034E+02, 0.000E+00, 1.500E-02, 5.252E+01
 2.160E+02, 0.000E+00, 5.983E+02, 0.000E+00, 1.500E-02, 5.214E+01
 2.180E+02, 0.000E+00, 6.015E+02, 0.000E+00, 1.500E-02, 5.246E+01
 2.200E+02, 0.000E+00, 6.015E+02, 0.000E+00, 1.500E-02, 5.244E+01
 2.220E+02, 0.000E+00, 5.992E+02, 0.000E+00, 1.500E-02, 5.227E+01
 2.240E+02, 0.000E+00, 6.000E+02, 0.000E+00, 1.500E-02, 5.233E+01
 2.260E+02, 0.000E+00, 5.984E+02, 0.000E+00, 1.500E-02, 5.225E+01
 2.280E+02, 0.000E+00, 6.054E+02, 0.000E+00, 1.500E-02, 5.270E+01
 2.300E+02, 0.000E+00, 6.013E+02, 0.000E+00, 1.500E-02, 5.241E+01
 2.320E+02, 0.000E+00, 5.994E+02, 0.000E+00, 1.500E-02, 5.233E+01
 2.340E+02, 0.000E+00, 5.963E+02, 0.000E+00, 1.500E-02, 5.208E+01
 2.360E+02, 0.000E+00, 5.965E+02, 0.000E+00, 1.500E-02, 5.213E+01
 2.380E+02, 0.000E+00, 5.905E+02, 0.000E+00, 1.500E-02, 5.168E+01
 2.400E+02, 0.000E+00, 5.981E+02, 0.000E+00, 1.500E-02, 5.228E+01
 2.420E+02, 0.000E+00, 5.996E+02, 0.000E+00, 1.500E-02, 5.234E+01
 2.440E+02, 0.000E+00, 5.970E+02, 0.000E+00, 1.500E-02, 5.215E+01
 2.460E+02, 0.000E+00, 6.050E+02, 0.000E+00, 1.500E-02, 5.271E+01
 2.480E+02, 0.000E+00, 6.031E+02, 0.000E+00, 1.500E-02, 5.252E+01
 2.500E+02, 0.000E+00, 6.007E+02, 0.000E+00, 1.500E-02, 5.240E+01
 2.520E+02, 0.000E+00, 6.069E+02, 0.000E+00, 1.500E-02, 5.279E+01
 2.540E+02, 0.000E+00, 6.022E+02, 0.000E+00, 1.500E-02, 5.247E+01
 2.560E+02, 0.000E+00, 6.020E+02, 0.000E+00, 1.500E-02, 5.247E+01
 2.580E+02, 0.000E+00, 6.007E+02, 0.000E+00, 1.500E-02, 5.238E+01
 2.600E+02, 0.000E+00, 5.989E+02, 0.000E+00, 1.500E-02, 5.222E+01
 2.620E+02, 0.000E+00, 5.959E+02, 0.000E+00, 1.500E-02, 5.209E+01
 2.640E+02, 0.000E+00, 5.974E+02, 0.000E+00, 1.500E-02, 5.215E+01
 2.660E+02, 0.000E+00, 5.964E+02, 0.000E+00, 1.500E-02, 5.215E+01
 2.680E+02, 0.000E+00, 6.033E+02, 0.000E+00, 1.500E-02, 5.256E+01
 2.700E+02, 0.000E+00, 5.981E+02, 0.000E+00, 1.500E-02, 5.224E+01
 2.720E+02, 0.000E+00, 6.018E+02, 0.000E+00, 1.500E-02, 5.249E+01
 2.740E+02, 0.000E+00, 5.983E+02, 0.000E+00, 1.500E-02, 5.222E+01
 2.760E+02, 0.000E+00, 6.013E+02, 0.000E+00, 1.500E-02, 5.244E+01
 2.780E+02, 0.000E+00, 6.020E+02, 0.000E+00, 1.500E-02, 5.246E+01
 2.800E+02, 0.000E+00, 6.036E+02, 0.000E+00, 1.500E-02, 5.257E+01
 2.820E+02, 0.000E+00, 6.070E+02, 0.000E+00, 1.500E-02, 5.277E+01
 2.840E+02, 0.000E+00, 6.024E+02, 0.000E+00, 1.500E-02, 5.247E+01
 2.860E+02, 0.000E+00, 5.967E+02, 0.000E+00, 1.500E-02, 5.211E+01
 2.880E+02, 0.000E+00, 5.993E+02, 0.000E+00, 1.500E-02, 5.231E+01
 2.900E+02, 0.000E+00, 6.048E+02, 0.000E+00, 1.500E-02, 5.266E+01
 2.920E+02, 0.000E+00, 6.009E+02, 0.000E+00, 1.500E-02, 5.239E+01
 2.940E+02, 0.000E+00, 5.996E+02, 0.000E+00, 1.500E-02, 5.233E+01
 2.960E+02, 0.000E+00, 6.005E+02, 0.000E+00, 1.500E-02, 5.238E+01
 2.980E+02, 0.000E+00, 6.036E+02, 0.000E+00, 1.500E-02, 5.260E+01
 3.000E+02, 0.000E+00, 6.010E+02, 0.000E+00, 1.500E-02, 5.240E+01
