s,C,kg/m2/s,m
Time,"temp","MLR","thick"
 0.0000000E+000, 2.0000000E+001, 0.0000000E+000, 1.8500000E-002
 5.0100000E+000, 7.9968056E+001, 4.0825321E-014, 1.8500000E-002
 1.0010000E+001, 1.5404033E+002, 1.1364736E-010, 1.8500000E-002
 1.5010000E+001, 2.0417772E+002, 1.3555579E-008, 1.8500000E-002
 2.0000000E+001, 2.4333492E+002, 3.7217092E-007, 1.8500000E-002
 2.5000000E+001, 2.7570221E+002, 4.4085737E-006, 1.8499991E-002
 3.0000000E+001, 3.0317978E+002, 3.0101397E-005, 1.8499928E-002
 3.5000000E+001, 3.2668076E+002, 1.3837045E-004, 1.8499596E-002
 4.0000000E+001, 3.4661282E+002, 4.6657780E-004, 1.8498339E-002
 4.5010000E+001, 3.6297519E+002, 1.2048325E-003, 1.8494720E-002
 5.0010000E+001, 3.7558508E+002, 2.4362733E-003, 1.8486604E-002
 5.5010000E+001, 3.8461331E+002, 3.9844057E-003, 1.8472064E-002
 6.0010000E+001, 3.8894116E+002, 5.2252989E-003, 1.8451156E-002
 6.5010000E+001, 3.9322018E+002, 6.5971548E-003, 1.8423870E-002
 7.0010000E+001, 3.9589783E+002, 7.7214860E-003, 1.8391525E-002
 7.5000000E+001, 3.9747876E+002, 8.5358946E-003, 1.8354775E-002
 8.0000000E+001, 3.9881342E+002, 9.2625134E-003, 1.8314252E-002
 8.5000000E+001, 3.9999261E+002, 9.9401576E-003, 1.8270506E-002
 9.0000000E+001, 4.0096106E+002, 1.0541324E-002, 1.8223939E-002
 9.5000000E+001, 4.0178778E+002, 1.1085882E-002, 1.8174835E-002
 1.0000000E+002, 4.0235712E+002, 1.1514653E-002, 1.8123431E-002
 1.0500000E+002, 4.0292569E+002, 1.1939825E-002, 1.8069949E-002
 1.1000000E+002, 4.0352539E+002, 1.2382079E-002, 1.8014513E-002
 1.1500000E+002, 4.0408820E+002, 1.2804978E-002, 1.7957238E-002
 1.2000000E+002, 4.0461298E+002, 1.3206028E-002, 1.7898230E-002
 1.2500000E+002, 4.0495413E+002, 1.3506197E-002, 1.7837588E-002
 1.3000000E+002, 4.0520117E+002, 1.3763967E-002, 1.7775528E-002
 1.3500000E+002, 4.0570541E+002, 1.4159452E-002, 1.7711980E-002
 1.4000000E+002, 4.0616565E+002, 1.4521996E-002, 1.7646961E-002
 1.4500000E+002, 4.0617722E+002, 1.4634140E-002, 1.7580673E-002
 1.5000000E+002, 4.0666779E+002, 1.5030908E-002, 1.7513117E-002
 1.5500000E+002, 4.0703354E+002, 1.5339250E-002, 1.7444177E-002
 1.6001000E+002, 4.0710040E+002, 1.5484198E-002, 1.7374052E-002
 1.6501000E+002, 4.0759842E+002, 1.5888812E-002, 1.7302653E-002
 1.7001000E+002, 4.0768787E+002, 1.6032523E-002, 1.7230079E-002
 1.7501000E+002, 4.0805969E+002, 1.6376454E-002, 1.7156418E-002
 1.8001000E+002, 4.0827747E+002, 1.6599327E-002, 1.7081434E-002
 1.8501000E+002, 4.0852740E+002, 1.6874170E-002, 1.7005408E-002
 1.9001000E+002, 4.0880063E+002, 1.7138552E-002, 1.6928047E-002
 1.9501000E+002, 4.0901614E+002, 1.7397756E-002, 1.6849631E-002
 2.0001000E+002, 4.0927219E+002, 1.7658530E-002, 1.6769867E-002
 2.0501000E+002, 4.0953351E+002, 1.7956961E-002, 1.6689021E-002
 2.1001000E+002, 4.0971161E+002, 1.8174814E-002, 1.6606817E-002
 2.1501000E+002, 4.1007578E+002, 1.8552318E-002, 1.6523458E-002
 2.2001000E+002, 4.1013840E+002, 1.8704489E-002, 1.6438767E-002
 2.2501000E+002, 4.0978531E+002, 1.8509127E-002, 1.6353033E-002
 2.3001000E+002, 4.0741974E+002, 1.7140266E-002, 1.6273659E-002
 2.3501000E+002, 4.0862488E+002, 1.8626807E-002, 1.6192155E-002
 2.4001000E+002, 4.0910617E+002, 1.9389521E-002, 1.6105644E-002
 2.4501000E+002, 4.0970563E+002, 2.0066323E-002, 1.6015813E-002
 2.5001000E+002, 4.0991547E+002, 2.0431152E-002, 1.5923828E-002
 2.5501000E+002, 4.1028275E+002, 2.0861872E-002, 1.5829828E-002
 2.6001000E+002, 4.1058569E+002, 2.1267114E-002, 1.5734207E-002
 2.6501000E+002, 4.1077621E+002, 2.1574756E-002, 1.5636750E-002
 2.7001000E+002, 4.1120248E+002, 2.2074470E-002, 1.5537618E-002
 2.7501000E+002, 4.1130444E+002, 2.2348797E-002, 1.5436738E-002
 2.8001000E+002, 4.1163428E+002, 2.2788623E-002, 1.5333960E-002
 2.8501000E+002, 4.1201181E+002, 2.3294637E-002, 1.5229384E-002
 2.9001000E+002, 4.1210916E+002, 2.3596391E-002, 1.5122877E-002
 2.9501000E+002, 4.1242926E+002, 2.4073016E-002, 1.5014337E-002
 3.0001000E+002, 4.1276120E+002, 2.4581693E-002, 1.4903796E-002
 3.0501000E+002, 4.1298904E+002, 2.5032019E-002, 1.4791179E-002
 3.1001000E+002, 4.1319180E+002, 2.5462862E-002, 1.4676353E-002
 3.1501000E+002, 4.1348727E+002, 2.5978765E-002, 1.4559329E-002
 3.2001000E+002, 4.1378076E+002, 2.6507666E-002, 1.4440072E-002
 3.2501000E+002, 4.1403922E+002, 2.7023021E-002, 1.4318556E-002
 3.3001000E+002, 4.1420508E+002, 2.7461119E-002, 1.4194737E-002
 3.3501000E+002, 4.1384216E+002, 2.7498880E-002, 1.4068804E-002
 3.4001000E+002, 4.1194424E+002, 2.7353596E-002, 1.3945862E-002
 3.4501000E+002, 4.1271381E+002, 2.8911337E-002, 1.3817325E-002
 3.5001000E+002, 4.1327066E+002, 2.9710483E-002, 1.3683958E-002
 3.5501000E+002, 4.1346964E+002, 3.0104239E-002, 1.3548040E-002
 3.6001000E+002, 4.1379941E+002, 3.0484430E-002, 1.3410185E-002
 3.6501000E+002, 4.1418933E+002, 3.0874727E-002, 1.3270785E-002
 3.7001000E+002, 4.1434769E+002, 3.1091012E-002, 1.3130003E-002
 3.7501000E+002, 4.1466510E+002, 3.1352982E-002, 1.2987948E-002
 3.8001000E+002, 4.1335791E+002, 3.0902144E-002, 1.2846422E-002
 3.8501000E+002, 4.1349948E+002, 3.1675208E-002, 1.2704410E-002
 3.9001000E+002, 4.1408145E+002, 3.2039665E-002, 1.2559450E-002
 3.9501000E+002, 4.1437408E+002, 3.2194596E-002, 1.2413491E-002
 4.0001000E+002, 4.1484799E+002, 3.2363180E-002, 1.2266689E-002
 4.0501000E+002, 4.1520905E+002, 3.2478835E-002, 1.2119357E-002
 4.1001000E+002, 4.1564377E+002, 3.2563437E-002, 1.1971483E-002
 4.1501000E+002, 4.1607004E+002, 3.2659672E-002, 1.1823276E-002
 4.2001000E+002, 4.1433542E+002, 3.2399528E-002, 1.1675713E-002
 4.2501000E+002, 4.1484158E+002, 3.2890145E-002, 1.1527043E-002
 4.3001000E+002, 4.1569421E+002, 3.2949980E-002, 1.1377341E-002
 4.3501000E+002, 4.1654187E+002, 3.2935753E-002, 1.1227604E-002
 4.4001000E+002, 4.1566888E+002, 3.2632250E-002, 1.1078804E-002
 4.4501000E+002, 4.1718109E+002, 3.2756660E-002, 1.0929974E-002
 4.5001000E+002, 4.1887640E+002, 3.2556981E-002, 1.0781456E-002
 4.5501000E+002, 4.2079492E+002, 3.2143589E-002, 1.0634278E-002
 4.6001000E+002, 4.2218661E+002, 3.1274550E-002, 1.0490108E-002
 4.6501000E+002, 4.2758630E+002, 3.0169133E-002, 1.0350146E-002
 4.7001000E+002, 4.3493344E+002, 2.7365848E-002, 1.0219146E-002
 4.7501000E+002, 4.4974164E+002, 2.3641480E-002, 1.0101976E-002
 4.8001000E+002, 5.1993628E+002, 1.0882434E-002, 1.0015527E-002
 4.8501000E+002, 6.2610010E+002, 0.0000000E+000, 9.9999998E-003
 4.9001000E+002, 6.3922003E+002, 0.0000000E+000, 9.9999998E-003
 4.9501000E+002, 6.4632410E+002, 0.0000000E+000, 9.9999998E-003
 5.0001000E+002, 6.5066351E+002, 0.0000000E+000, 9.9999998E-003
 5.0501000E+002, 6.5322913E+002, 0.0000000E+000, 9.9999998E-003
 5.1001000E+002, 6.5469977E+002, 0.0000000E+000, 9.9999998E-003
 5.1501000E+002, 6.5552716E+002, 0.0000000E+000, 9.9999998E-003
 5.2001000E+002, 6.5598792E+002, 0.0000000E+000, 9.9999998E-003
 5.2501000E+002, 6.5624310E+002, 0.0000000E+000, 9.9999998E-003
 5.3001000E+002, 6.5638403E+002, 0.0000000E+000, 9.9999998E-003
 5.3501000E+002, 6.5646167E+002, 0.0000000E+000, 9.9999998E-003
 5.4001000E+002, 6.5650433E+002, 0.0000000E+000, 9.9999998E-003
 5.4501000E+002, 6.5652783E+002, 0.0000000E+000, 9.9999998E-003
 5.5001000E+002, 6.5654077E+002, 0.0000000E+000, 9.9999998E-003
 5.5501000E+002, 6.5654779E+002, 0.0000000E+000, 9.9999998E-003
 5.6001000E+002, 6.5655182E+002, 0.0000000E+000, 9.9999998E-003
 5.6501000E+002, 6.5655396E+002, 0.0000000E+000, 9.9999998E-003
 5.7001000E+002, 6.5655518E+002, 0.0000000E+000, 9.9999998E-003
 5.7501000E+002, 6.5655591E+002, 0.0000000E+000, 9.9999998E-003
 5.8001000E+002, 6.5655609E+002, 0.0000000E+000, 9.9999998E-003
 5.8501000E+002, 6.5655646E+002, 0.0000000E+000, 9.9999998E-003
 5.9001000E+002, 6.5655646E+002, 0.0000000E+000, 9.9999998E-003
 5.9501000E+002, 6.5655646E+002, 0.0000000E+000, 9.9999998E-003
 6.0001000E+002, 6.5655658E+002, 0.0000000E+000, 9.9999998E-003
 6.0501000E+002, 6.5655670E+002, 0.0000000E+000, 9.9999998E-003
 6.1001000E+002, 6.5655658E+002, 0.0000000E+000, 9.9999998E-003
 6.1501000E+002, 6.5655652E+002, 0.0000000E+000, 9.9999998E-003
 6.2001000E+002, 6.5655658E+002, 0.0000000E+000, 9.9999998E-003
 6.2501000E+002, 6.5655682E+002, 0.0000000E+000, 9.9999998E-003
 6.3001000E+002, 6.5655676E+002, 0.0000000E+000, 9.9999998E-003
 6.3501000E+002, 6.5655664E+002, 0.0000000E+000, 9.9999998E-003
 6.4001000E+002, 6.5655658E+002, 0.0000000E+000, 9.9999998E-003
 6.4501000E+002, 6.5655664E+002, 0.0000000E+000, 9.9999998E-003
 6.5001000E+002, 6.5655664E+002, 0.0000000E+000, 9.9999998E-003
 6.5501000E+002, 6.5655670E+002, 0.0000000E+000, 9.9999998E-003
 6.6001000E+002, 6.5655664E+002, 0.0000000E+000, 9.9999998E-003
 6.6501000E+002, 6.5655652E+002, 0.0000000E+000, 9.9999998E-003
 6.7001000E+002, 6.5655664E+002, 0.0000000E+000, 9.9999998E-003
 6.7501000E+002, 6.5655670E+002, 0.0000000E+000, 9.9999998E-003
 6.8001000E+002, 6.5655664E+002, 0.0000000E+000, 9.9999998E-003
 6.8501000E+002, 6.5655664E+002, 0.0000000E+000, 9.9999998E-003
 6.9001000E+002, 6.5655652E+002, 0.0000000E+000, 9.9999998E-003
 6.9501000E+002, 6.5655658E+002, 0.0000000E+000, 9.9999998E-003
 7.0001000E+002, 6.5655664E+002, 0.0000000E+000, 9.9999998E-003
 7.0501000E+002, 6.5655664E+002, 0.0000000E+000, 9.9999998E-003
 7.1001000E+002, 6.5655658E+002, 0.0000000E+000, 9.9999998E-003
 7.1501000E+002, 6.5655664E+002, 0.0000000E+000, 9.9999998E-003
 7.2001000E+002, 6.5655664E+002, 0.0000000E+000, 9.9999998E-003
 7.2501000E+002, 6.5655676E+002, 0.0000000E+000, 9.9999998E-003
 7.3001000E+002, 6.5655695E+002, 0.0000000E+000, 9.9999998E-003
 7.3501000E+002, 6.5655664E+002, 0.0000000E+000, 9.9999998E-003
 7.4001000E+002, 6.5655658E+002, 0.0000000E+000, 9.9999998E-003
 7.4501000E+002, 6.5655658E+002, 0.0000000E+000, 9.9999998E-003
 7.5001000E+002, 6.5655676E+002, 0.0000000E+000, 9.9999998E-003
 7.5501000E+002, 6.5655676E+002, 0.0000000E+000, 9.9999998E-003
 7.6001000E+002, 6.5655658E+002, 0.0000000E+000, 9.9999998E-003
 7.6501000E+002, 6.5655670E+002, 0.0000000E+000, 9.9999998E-003
 7.7001000E+002, 6.5655658E+002, 0.0000000E+000, 9.9999998E-003
 7.7501000E+002, 6.5655652E+002, 0.0000000E+000, 9.9999998E-003
 7.8001000E+002, 6.5655664E+002, 0.0000000E+000, 9.9999998E-003
 7.8501000E+002, 6.5655664E+002, 0.0000000E+000, 9.9999998E-003
 7.9001000E+002, 6.5655658E+002, 0.0000000E+000, 9.9999998E-003
 7.9501000E+002, 6.5655664E+002, 0.0000000E+000, 9.9999998E-003
 8.0001000E+002, 6.5655664E+002, 0.0000000E+000, 9.9999998E-003
