s,C,kg/m2/s,m
Time,"temp","MLR","thick"
 0.0000000E+000, 2.0000000E+001, 0.0000000E+000, 3.1534299E-002
 5.0100000E+000, 7.3985870E+001, 0.0000000E+000, 3.1534299E-002
 1.0010000E+001, 1.3613445E+002, 1.6227541E-024, 3.1534299E-002
 1.5010000E+001, 1.6710406E+002, 2.8370610E-019, 3.1534299E-002
 2.0000000E+001, 1.9496065E+002, 1.0967911E-016, 3.1534299E-002
 2.5000000E+001, 2.2833139E+002, 2.5158625E-014, 3.1534299E-002
 3.0000000E+001, 2.5100618E+002, 5.6909534E-013, 3.1534299E-002
 3.5000000E+001, 2.6909872E+002, 9.4242296E-012, 3.1534299E-002
 4.0000000E+001, 2.8867303E+002, 1.4574578E-010, 3.1534299E-002
 4.5010000E+001, 3.0688559E+002, 1.5199397E-009, 3.1534299E-002
 5.0010000E+001, 3.2315982E+002, 1.1013936E-008, 3.1534299E-002
 5.5010000E+001, 3.3776080E+002, 5.9805849E-008, 3.1534299E-002
 6.0010000E+001, 3.5041159E+002, 2.4601411E-007, 3.1534299E-002
 6.5010000E+001, 3.6159973E+002, 8.0202130E-007, 3.1534296E-002
 7.0010000E+001, 3.7042581E+002, 2.0391976E-006, 3.1534288E-002
 7.5000000E+001, 3.7850018E+002, 4.7713320E-006, 3.1534269E-002
 8.0000000E+001, 3.8633261E+002, 1.0679087E-005, 3.1534232E-002
 8.5000000E+001, 3.9444849E+002, 2.3735982E-005, 3.1534143E-002
 9.0000000E+001, 4.0214645E+002, 5.0351653E-005, 3.1533945E-002
 9.5000000E+001, 4.0939294E+002, 1.0011487E-004, 3.1533547E-002
 1.0000000E+002, 4.1599881E+002, 1.8531445E-004, 3.1532783E-002
 1.0500000E+002, 4.2230133E+002, 3.3105889E-004, 3.1531386E-002
 1.1000000E+002, 4.2741165E+002, 5.3471525E-004, 3.1529043E-002
 1.1500000E+002, 4.3189468E+002, 8.1223360E-004, 3.1525377E-002
 1.2000000E+002, 4.3660837E+002, 1.2073717E-003, 3.1519897E-002
 1.2500000E+002, 4.3992407E+002, 1.6648356E-003, 3.1511992E-002
 1.3000000E+002, 4.4369150E+002, 2.2373802E-003, 3.1501371E-002
 1.3500000E+002, 4.4542599E+002, 2.7566189E-003, 3.1487547E-002
 1.4000000E+002, 4.4725214E+002, 3.2146112E-003, 3.1471033E-002
 1.4500000E+002, 4.4806238E+002, 3.6738983E-003, 3.1452324E-002
 1.5000000E+002, 4.5078372E+002, 4.4912808E-003, 3.1429872E-002
 1.5500000E+002, 4.5191409E+002, 5.0748768E-003, 3.1403434E-002
 1.6001000E+002, 4.5187939E+002, 5.3475089E-003, 3.1375062E-002
 1.6501000E+002, 4.5290222E+002, 6.0430649E-003, 3.1343561E-002
 1.7001000E+002, 4.5362308E+002, 6.4523476E-003, 3.1308979E-002
 1.7501000E+002, 4.5413965E+002, 7.0195817E-003, 3.1272288E-002
 1.8001000E+002, 4.5514740E+002, 7.6846546E-003, 3.1231603E-002
 1.8501000E+002, 4.5512430E+002, 7.9445336E-003, 3.1189106E-002
 1.9001000E+002, 4.5599802E+002, 8.7172156E-003, 3.1143112E-002
 1.9501000E+002, 4.5607785E+002, 8.9421291E-003, 3.1094652E-002
 2.0001000E+002, 4.5690662E+002, 9.6693812E-003, 3.1043349E-002
 2.0501000E+002, 4.5442825E+002, 8.7064980E-003, 3.0993195E-002
 2.1001000E+002, 4.5551184E+002, 9.9418750E-003, 3.0941937E-002
 2.1501000E+002, 4.5538168E+002, 1.0573044E-002, 3.0885721E-002
 2.2001000E+002, 4.5638516E+002, 1.1691448E-002, 3.0824203E-002
 2.2501000E+002, 4.5653622E+002, 1.2127710E-002, 3.0758968E-002
 2.3001000E+002, 4.5764172E+002, 1.3098813E-002, 3.0689524E-002
 2.3501000E+002, 4.5708798E+002, 1.3292965E-002, 3.0617116E-002
 2.4001000E+002, 4.5750089E+002, 1.3901090E-002, 3.0542029E-002
 2.4501000E+002, 4.5757178E+002, 1.4267741E-002, 3.0464884E-002
 2.5001000E+002, 4.5801935E+002, 1.4813623E-002, 3.0384649E-002
 2.5501000E+002, 4.5764087E+002, 1.5065040E-002, 3.0302905E-002
 2.6001000E+002, 4.5863907E+002, 1.5636655E-002, 3.0218303E-002
 2.6501000E+002, 4.5885025E+002, 1.6110593E-002, 3.0131334E-002
 2.7001000E+002, 4.5889917E+002, 1.6391683E-002, 3.0041641E-002
 2.7501000E+002, 4.5865771E+002, 1.6652318E-002, 2.9951030E-002
 2.8001000E+002, 4.5871753E+002, 1.6785787E-002, 2.9859129E-002
 2.8501000E+002, 4.5879037E+002, 1.7086875E-002, 2.9766181E-002
 2.9001000E+002, 4.5916824E+002, 1.7326517E-002, 2.9671492E-002
 2.9501000E+002, 4.5911295E+002, 1.7511997E-002, 2.9575834E-002
 3.0001000E+002, 4.5943909E+002, 1.7671138E-002, 2.9479096E-002
 3.0501000E+002, 4.5809641E+002, 1.7352533E-002, 2.9383220E-002
 3.1001000E+002, 4.5846631E+002, 1.7896561E-002, 2.9286213E-002
 3.1501000E+002, 4.5832602E+002, 1.7974105E-002, 2.9187646E-002
 3.2001000E+002, 4.5866702E+002, 1.8190963E-002, 2.9088166E-002
 3.2501000E+002, 4.5817239E+002, 1.8063553E-002, 2.8988473E-002
 3.3001000E+002, 4.5884729E+002, 1.8287025E-002, 2.8888786E-002
 3.3501000E+002, 4.5896512E+002, 1.8350914E-002, 2.8787885E-002
 3.4001000E+002, 4.5906357E+002, 1.8406639E-002, 2.8687138E-002
 3.4501000E+002, 4.5927365E+002, 1.8438535E-002, 2.8585743E-002
 3.5001000E+002, 4.5941873E+002, 1.8516429E-002, 2.8484508E-002
 3.5501000E+002, 4.5963519E+002, 1.8534960E-002, 2.8382586E-002
 3.6001000E+002, 4.5968597E+002, 1.8565657E-002, 2.8280633E-002
 3.6501000E+002, 4.5991232E+002, 1.8643547E-002, 2.8178295E-002
 3.7001000E+002, 4.5969760E+002, 1.8482026E-002, 2.8076304E-002
 3.7501000E+002, 4.6001990E+002, 1.8603541E-002, 2.7974546E-002
 3.8001000E+002, 4.6027939E+002, 1.8623622E-002, 2.7872177E-002
 3.8501000E+002, 4.5848865E+002, 1.8552769E-002, 2.7770318E-002
 3.9001000E+002, 4.5921841E+002, 1.8785186E-002, 2.7667560E-002
 3.9501000E+002, 4.5928613E+002, 1.8720705E-002, 2.7564362E-002
 4.0001000E+002, 4.5930667E+002, 1.8667407E-002, 2.7461778E-002
 4.0501000E+002, 4.6001245E+002, 1.8754054E-002, 2.7359072E-002
 4.1001000E+002, 4.6009604E+002, 1.8699169E-002, 2.7255965E-002
 4.1501000E+002, 4.6047610E+002, 1.8648945E-002, 2.7153514E-002
 4.2001000E+002, 4.6002686E+002, 1.8562203E-002, 2.7051143E-002
 4.2501000E+002, 4.5925461E+002, 1.8428503E-002, 2.6949612E-002
 4.3001000E+002, 4.5970953E+002, 1.8361390E-002, 2.6848529E-002
 4.3501000E+002, 4.6115948E+002, 1.8591624E-002, 2.6747093E-002
 4.4001000E+002, 4.6135373E+002, 1.8467693E-002, 2.6645079E-002
 4.4501000E+002, 4.6171222E+002, 1.8203136E-002, 2.6544452E-002
 4.5001000E+002, 4.6267719E+002, 1.8231135E-002, 2.6444279E-002
 4.5501000E+002, 4.6342447E+002, 1.8051671E-002, 2.6344633E-002
 4.6001000E+002, 4.6424435E+002, 1.8023295E-002, 2.6245432E-002
 4.6501000E+002, 4.6469955E+002, 1.7774202E-002, 2.6147176E-002
 4.7001000E+002, 4.6626602E+002, 1.7513398E-002, 2.6050128E-002
 4.7501000E+002, 4.6828287E+002, 1.7184967E-002, 2.5954928E-002
 4.8001000E+002, 4.7094601E+002, 1.6837858E-002, 2.5861075E-002
 4.8501000E+002, 4.7485428E+002, 1.6293855E-002, 2.5770346E-002
 4.9001000E+002, 4.7938477E+002, 1.5890263E-002, 2.5681825E-002
 4.9501000E+002, 4.8590091E+002, 1.5536095E-002, 2.5595436E-002
 5.0001000E+002, 4.9587537E+002, 1.4315581E-002, 2.5512893E-002
 5.0501000E+002, 5.1366644E+002, 7.1357633E-003, 2.5446162E-002
 5.1001000E+002, 4.5753366E+002, 0.0000000E+000, 2.5434300E-002
 5.1501000E+002, 4.2984872E+002, 0.0000000E+000, 2.5434300E-002
 5.2001000E+002, 4.1582040E+002, 0.0000000E+000, 2.5434300E-002
 5.2501000E+002, 4.1006104E+002, 0.0000000E+000, 2.5434300E-002
 5.3001000E+002, 4.0647592E+002, 0.0000000E+000, 2.5434300E-002
 5.3501000E+002, 4.0008179E+002, 0.0000000E+000, 2.5434300E-002
 5.4001000E+002, 3.9750540E+002, 0.0000000E+000, 2.5434300E-002
 5.4501000E+002, 3.9393448E+002, 0.0000000E+000, 2.5434300E-002
 5.5001000E+002, 3.9209747E+002, 0.0000000E+000, 2.5434300E-002
 5.5501000E+002, 3.8975714E+002, 0.0000000E+000, 2.5434300E-002
 5.6001000E+002, 3.8858130E+002, 0.0000000E+000, 2.5434300E-002
 5.6501000E+002, 3.8730511E+002, 0.0000000E+000, 2.5434300E-002
 5.7001000E+002, 3.8627072E+002, 0.0000000E+000, 2.5434300E-002
 5.7501000E+002, 3.8468121E+002, 0.0000000E+000, 2.5434300E-002
 5.8001000E+002, 3.8494241E+002, 0.0000000E+000, 2.5434300E-002
 5.8501000E+002, 3.8329257E+002, 0.0000000E+000, 2.5434300E-002
 5.9001000E+002, 3.8335645E+002, 0.0000000E+000, 2.5434300E-002
 5.9501000E+002, 3.8382367E+002, 0.0000000E+000, 2.5434300E-002
 6.0001000E+002, 3.8042920E+002, 0.0000000E+000, 2.5434300E-002
 6.0501000E+002, 3.7845099E+002, 0.0000000E+000, 2.5434300E-002
 6.1001000E+002, 3.7817383E+002, 0.0000000E+000, 2.5434300E-002
 6.1501000E+002, 3.7751035E+002, 0.0000000E+000, 2.5434300E-002
 6.2001000E+002, 3.7669263E+002, 0.0000000E+000, 2.5434300E-002
 6.2501000E+002, 3.7781894E+002, 0.0000000E+000, 2.5434300E-002
 6.3001000E+002, 3.7976318E+002, 0.0000000E+000, 2.5434300E-002
 6.3501000E+002, 3.7590100E+002, 0.0000000E+000, 2.5434300E-002
 6.4001000E+002, 3.7430597E+002, 0.0000000E+000, 2.5434300E-002
 6.4501000E+002, 3.7360776E+002, 0.0000000E+000, 2.5434300E-002
 6.5001000E+002, 3.7471915E+002, 0.0000000E+000, 2.5434300E-002
 6.5501000E+002, 3.7319998E+002, 0.0000000E+000, 2.5434300E-002
 6.6001000E+002, 3.7394461E+002, 0.0000000E+000, 2.5434300E-002
 6.6501000E+002, 3.7280698E+002, 0.0000000E+000, 2.5434300E-002
 6.7001000E+002, 3.7121954E+002, 0.0000000E+000, 2.5434300E-002
 6.7501000E+002, 3.7237683E+002, 0.0000000E+000, 2.5434300E-002
 6.8001000E+002, 3.7295929E+002, 0.0000000E+000, 2.5434300E-002
 6.8501000E+002, 3.7658243E+002, 0.0000000E+000, 2.5434300E-002
 6.9001000E+002, 3.7320013E+002, 0.0000000E+000, 2.5434300E-002
 6.9501000E+002, 3.7030325E+002, 0.0000000E+000, 2.5434300E-002
 7.0001000E+002, 3.6940613E+002, 0.0000000E+000, 2.5434300E-002
 7.0501000E+002, 3.6976334E+002, 0.0000000E+000, 2.5434300E-002
 7.1001000E+002, 3.6929462E+002, 0.0000000E+000, 2.5434300E-002
 7.1501000E+002, 3.6933255E+002, 0.0000000E+000, 2.5434300E-002
 7.2001000E+002, 3.6983688E+002, 0.0000000E+000, 2.5434300E-002
 7.2501000E+002, 3.6940408E+002, 0.0000000E+000, 2.5434300E-002
 7.3001000E+002, 3.6861789E+002, 0.0000000E+000, 2.5434300E-002
 7.3501000E+002, 3.6701254E+002, 0.0000000E+000, 2.5434300E-002
 7.4001000E+002, 3.6656198E+002, 0.0000000E+000, 2.5434300E-002
 7.4501000E+002, 3.6687561E+002, 0.0000000E+000, 2.5434300E-002
 7.5001000E+002, 3.6710339E+002, 0.0000000E+000, 2.5434300E-002
 7.5501000E+002, 3.6717575E+002, 0.0000000E+000, 2.5434300E-002
 7.6001000E+002, 3.6705121E+002, 0.0000000E+000, 2.5434300E-002
 7.6501000E+002, 3.6672153E+002, 0.0000000E+000, 2.5434300E-002
 7.7001000E+002, 3.6725748E+002, 0.0000000E+000, 2.5434300E-002
 7.7501000E+002, 3.6716531E+002, 0.0000000E+000, 2.5434300E-002
 7.8001000E+002, 3.6855475E+002, 0.0000000E+000, 2.5434300E-002
 7.8501000E+002, 3.6854291E+002, 0.0000000E+000, 2.5434300E-002
 7.9001000E+002, 3.6855692E+002, 0.0000000E+000, 2.5434300E-002
 7.9501000E+002, 3.6723859E+002, 0.0000000E+000, 2.5434300E-002
 8.0001000E+002, 3.6513223E+002, 0.0000000E+000, 2.5434300E-002
