s,kW,C,kg/m2/s,m,kW/m2
Time,"HRR","temp","MLR","thick","flux"
 0.000E+000, 0.000E+000, 2.000E+001, 0.000E+000, 2.040E-002,-4.653E-011
 2.012E+000, 0.000E+000, 4.695E+001, 3.474E-029, 2.040E-002, 5.002E+001
 4.003E+000, 0.000E+000, 8.662E+001, 5.859E-025, 2.040E-002, 5.016E+001
 6.007E+000, 0.000E+000, 1.166E+002, 5.099E-022, 2.040E-002, 5.029E+001
 8.007E+000, 0.000E+000, 1.416E+002, 8.018E-020, 2.040E-002, 5.037E+001
 1.001E+001, 0.000E+000, 1.632E+002, 4.422E-018, 2.040E-002, 5.042E+001
 1.201E+001, 0.000E+000, 1.824E+002, 1.207E-016, 2.040E-002, 5.051E+001
 1.400E+001, 0.000E+000, 1.997E+002, 1.905E-015, 2.040E-002, 5.055E+001
 1.600E+001, 0.000E+000, 2.153E+002, 2.021E-014, 2.040E-002, 5.056E+001
 1.801E+001, 0.000E+000, 2.300E+002, 1.633E-013, 2.040E-002, 5.072E+001
 2.000E+001, 8.875E-010, 2.439E+002, 1.055E-012, 2.040E-002, 5.085E+001
 2.201E+001, 4.315E-008, 2.566E+002, 5.399E-012, 2.040E-002, 5.085E+001
 2.401E+001, 2.823E-007, 2.682E+002, 2.273E-011, 2.040E-002, 5.083E+001
 2.601E+001, 1.122E-006, 2.793E+002, 8.420E-011, 2.040E-002, 5.099E+001
 2.801E+001, 3.747E-006, 2.901E+002, 2.863E-010, 2.040E-002, 5.107E+001
 3.000E+001, 1.105E-005, 2.998E+002, 8.423E-010, 2.040E-002, 5.107E+001
 3.201E+001, 2.966E-005, 3.092E+002, 2.294E-009, 2.040E-002, 5.113E+001
 3.400E+001, 7.303E-005, 3.181E+002, 5.740E-009, 2.040E-002, 5.123E+001
 3.600E+001, 1.680E-004, 3.268E+002, 1.364E-008, 2.040E-002, 5.132E+001
 3.800E+001, 3.635E-004, 3.350E+002, 3.046E-008, 2.040E-002, 5.136E+001
 4.000E+001, 7.451E-004, 3.430E+002, 6.472E-008, 2.040E-002, 5.148E+001
 4.201E+001, 1.451E-003, 3.500E+002, 1.270E-007, 2.040E-002, 5.138E+001
 4.400E+001, 2.707E-003, 3.568E+002, 2.367E-007, 2.040E-002, 5.144E+001
 4.600E+001, 4.838E-003, 3.633E+002, 4.261E-007, 2.040E-002, 5.146E+001
 4.801E+001, 8.360E-003, 3.691E+002, 7.228E-007, 2.040E-002, 5.133E+001
 5.000E+001, 1.400E-002, 3.751E+002, 1.208E-006, 2.040E-002, 5.141E+001
 5.201E+001, 2.274E-002, 3.804E+002, 1.927E-006, 2.040E-002, 5.139E+001
 5.401E+001, 3.604E-002, 3.864E+002, 3.114E-006, 2.040E-002, 5.156E+001
 5.600E+001, 5.578E-002, 3.913E+002, 4.766E-006, 2.040E-002, 5.145E+001
 5.801E+001, 8.433E-002, 3.968E+002, 7.350E-006, 2.040E-002, 5.163E+001
 6.001E+001, 1.249E-001, 4.012E+002, 1.072E-005, 2.040E-002, 5.146E+001
 6.201E+001, 1.813E-001, 4.063E+002, 1.568E-005, 2.040E-002, 5.172E+001
 6.400E+001, 2.592E-001, 4.109E+002, 2.265E-005, 2.040E-002, 5.163E+001
 6.601E+001, 3.650E-001, 4.148E+002, 3.111E-005, 2.040E-002, 5.154E+001
 6.800E+001, 5.078E-001, 4.188E+002, 4.272E-005, 2.040E-002, 5.147E+001
 7.000E+001, 6.957E-001, 4.235E+002, 5.915E-005, 2.040E-002, 5.182E+001
 7.200E+001, 9.438E-001, 4.277E+002, 8.099E-005, 2.040E-002, 5.184E+001
 7.400E+001, 1.268E+000, 4.322E+002, 1.125E-004, 2.040E-002, 5.182E+001
 7.601E+001, 1.692E+000, 4.360E+002, 1.475E-004, 2.040E-002, 5.199E+001
 7.800E+001, 2.236E+000, 4.405E+002, 1.985E-004, 2.040E-002, 5.220E+001
 8.000E+001, 2.929E+000, 4.451E+002, 2.726E-004, 2.040E-002, 5.227E+001
 8.200E+001, 3.824E+000, 4.495E+002, 3.657E-004, 2.040E-002, 5.236E+001
 8.400E+001, 4.983E+000, 4.537E+002, 4.834E-004, 2.040E-002, 5.253E+001
 8.600E+001, 6.495E+000, 4.590E+002, 6.608E-004, 2.040E-002, 5.305E+001
 8.801E+001, 8.458E+000, 4.639E+002, 9.046E-004, 2.040E-002, 5.342E+001
 9.000E+001, 1.100E+001, 4.693E+002, 1.257E-003, 2.040E-002, 5.422E+001
 9.200E+001, 1.434E+001, 4.748E+002, 1.717E-003, 2.040E-002, 5.587E+001
 9.400E+001, 1.926E+001, 4.824E+002, 2.611E-003, 2.040E-002, 5.996E+001
 9.600E+001, 2.839E+001, 4.963E+002, 5.433E-003, 2.040E-002, 7.113E+001
 9.800E+001, 4.513E+001, 5.099E+002, 1.090E-002, 2.040E-002, 7.966E+001
 1.000E+002, 6.939E+001, 5.195E+002, 1.663E-002, 2.040E-002, 8.341E+001
 1.020E+002, 1.000E+002, 5.231E+002, 1.891E-002, 2.040E-002, 8.343E+001
 1.040E+002, 1.340E+002, 5.254E+002, 1.940E-002, 2.040E-002, 8.325E+001
 1.060E+002, 1.718E+002, 5.274E+002, 1.912E-002, 2.040E-002, 8.247E+001
 1.080E+002, 2.065E+002, 5.291E+002, 1.853E-002, 2.040E-002, 8.064E+001
 1.100E+002, 2.398E+002, 5.320E+002, 1.828E-002, 2.040E-002, 8.120E+001
 1.120E+002, 2.702E+002, 5.359E+002, 1.846E-002, 2.040E-002, 8.270E+001
 1.140E+002, 2.861E+002, 5.392E+002, 1.797E-002, 2.040E-002, 8.207E+001
 1.160E+002, 3.072E+002, 5.434E+002, 1.769E-002, 2.040E-002, 8.207E+001
 1.180E+002, 3.136E+002, 5.482E+002, 1.726E-002, 2.040E-002, 8.345E+001
 1.200E+002, 3.146E+002, 5.534E+002, 1.751E-002, 2.040E-002, 8.337E+001
 1.220E+002, 3.203E+002, 5.598E+002, 1.796E-002, 2.040E-002, 8.586E+001
 1.240E+002, 3.199E+002, 5.603E+002, 1.722E-002, 2.040E-002, 8.196E+001
 1.260E+002, 3.192E+002, 5.608E+002, 1.645E-002, 2.040E-002, 8.035E+001
 1.280E+002, 3.211E+002, 5.630E+002, 1.626E-002, 2.040E-002, 8.067E+001
 1.300E+002, 3.171E+002, 5.664E+002, 1.653E-002, 2.040E-002, 8.117E+001
 1.320E+002, 3.211E+002, 5.695E+002, 1.641E-002, 2.040E-002, 8.229E+001
 1.340E+002, 3.225E+002, 5.716E+002, 1.619E-002, 2.040E-002, 8.053E+001
 1.360E+002, 3.183E+002, 5.780E+002, 1.662E-002, 2.040E-002, 8.409E+001
 1.380E+002, 3.173E+002, 5.792E+002, 1.647E-002, 2.040E-002, 8.126E+001
 1.400E+002, 3.159E+002, 5.811E+002, 1.601E-002, 2.040E-002, 8.105E+001
 1.420E+002, 3.197E+002, 5.885E+002, 1.721E-002, 2.040E-002, 8.433E+001
 1.440E+002, 3.197E+002, 5.897E+002, 1.718E-002, 2.040E-002, 8.406E+001
 1.460E+002, 3.157E+002, 5.906E+002, 1.720E-002, 2.040E-002, 8.238E+001
 1.480E+002, 3.190E+002, 5.911E+002, 1.659E-002, 2.040E-002, 8.178E+001
 1.500E+002, 3.148E+002, 5.957E+002, 1.702E-002, 2.040E-002, 8.280E+001
 1.520E+002, 3.261E+002, 5.997E+002, 1.733E-002, 2.040E-002, 8.429E+001
 1.540E+002, 3.174E+002, 5.995E+002, 1.669E-002, 2.040E-002, 8.176E+001
 1.560E+002, 3.155E+002, 6.054E+002, 1.707E-002, 2.040E-002, 8.451E+001
 1.580E+002, 3.215E+002, 6.102E+002, 1.760E-002, 2.040E-002, 8.628E+001
 1.600E+002, 3.218E+002, 6.129E+002, 1.813E-002, 2.040E-002, 8.460E+001
 1.620E+002, 3.275E+002, 6.113E+002, 1.751E-002, 2.040E-002, 8.273E+001
 1.640E+002, 3.265E+002, 6.138E+002, 1.740E-002, 2.040E-002, 8.380E+001
 1.660E+002, 3.301E+002, 6.150E+002, 1.760E-002, 2.040E-002, 8.262E+001
 1.680E+002, 3.268E+002, 6.193E+002, 1.767E-002, 2.040E-002, 8.474E+001
 1.700E+002, 3.302E+002, 6.193E+002, 1.761E-002, 2.040E-002, 8.243E+001
 1.720E+002, 3.292E+002, 6.204E+002, 1.717E-002, 2.040E-002, 8.269E+001
 1.740E+002, 3.275E+002, 6.236E+002, 1.730E-002, 2.040E-002, 8.319E+001
 1.760E+002, 3.330E+002, 6.304E+002, 1.789E-002, 2.040E-002, 8.702E+001
 1.780E+002, 3.366E+002, 6.317E+002, 1.827E-002, 2.040E-002, 8.492E+001
 1.800E+002, 3.339E+002, 6.317E+002, 1.807E-002, 2.040E-002, 8.386E+001
 1.820E+002, 3.406E+002, 6.364E+002, 1.834E-002, 2.040E-002, 8.694E+001
 1.840E+002, 3.465E+002, 6.380E+002, 1.879E-002, 2.040E-002, 8.469E+001
 1.860E+002, 3.432E+002, 6.339E+002, 1.819E-002, 2.040E-002, 8.117E+001
 1.880E+002, 3.435E+002, 6.348E+002, 1.752E-002, 2.040E-002, 8.259E+001
 1.900E+002, 3.442E+002, 6.388E+002, 1.779E-002, 2.040E-002, 8.353E+001
 1.920E+002, 3.441E+002, 6.379E+002, 1.782E-002, 2.040E-002, 8.071E+001
 1.940E+002, 3.499E+002, 6.385E+002, 1.751E-002, 2.040E-002, 8.129E+001
 1.960E+002, 3.501E+002, 6.415E+002, 1.766E-002, 2.040E-002, 8.302E+001
 1.980E+002, 3.539E+002, 6.462E+002, 1.817E-002, 2.040E-002, 8.355E+001
 2.000E+002, 3.517E+002, 6.459E+002, 1.837E-002, 2.040E-002, 8.235E+001
 2.020E+002, 3.548E+002, 6.465E+002, 1.826E-002, 2.040E-002, 8.201E+001
 2.040E+002, 3.587E+002, 6.461E+002, 1.810E-002, 2.040E-002, 8.128E+001
 2.060E+002, 3.560E+002, 6.476E+002, 1.805E-002, 2.040E-002, 8.127E+001
 2.080E+002, 3.553E+002, 6.499E+002, 1.810E-002, 2.040E-002, 8.206E+001
 2.100E+002, 3.634E+002, 6.558E+002, 1.853E-002, 2.040E-002, 8.483E+001
 2.120E+002, 3.634E+002, 6.570E+002, 1.880E-002, 2.040E-002, 8.338E+001
 2.140E+002, 3.633E+002, 6.588E+002, 1.884E-002, 2.040E-002, 8.520E+001
 2.160E+002, 3.650E+002, 6.619E+002, 1.918E-002, 2.040E-002, 8.384E+001
 2.180E+002, 3.700E+002, 6.601E+002, 1.903E-002, 2.040E-002, 8.322E+001
 2.200E+002, 3.677E+002, 6.602E+002, 1.900E-002, 2.040E-002, 8.159E+001
 2.220E+002, 3.705E+002, 6.592E+002, 1.868E-002, 2.040E-002, 8.166E+001
 2.240E+002, 3.690E+002, 6.597E+002, 1.854E-002, 2.040E-002, 8.085E+001
 2.260E+002, 3.669E+002, 6.635E+002, 1.849E-002, 2.040E-002, 8.411E+001
 2.280E+002, 3.703E+002, 6.682E+002, 1.891E-002, 2.040E-002, 8.420E+001
 2.300E+002, 3.720E+002, 6.688E+002, 1.908E-002, 2.040E-002, 8.289E+001
 2.320E+002, 3.734E+002, 6.692E+002, 1.899E-002, 2.040E-002, 8.367E+001
 2.340E+002, 3.738E+002, 6.748E+002, 1.917E-002, 2.040E-002, 8.607E+001
 2.360E+002, 3.767E+002, 6.770E+002, 1.949E-002, 2.040E-002, 8.608E+001
 2.380E+002, 3.758E+002, 6.815E+002, 1.958E-002, 2.040E-002, 8.845E+001
 2.400E+002, 3.706E+002, 6.784E+002, 1.969E-002, 2.040E-002, 8.413E+001
 2.420E+002, 3.711E+002, 6.783E+002, 1.939E-002, 2.040E-002, 8.401E+001
 2.440E+002, 3.758E+002, 6.754E+002, 1.910E-002, 2.040E-002, 8.117E+001
 2.460E+002, 3.666E+002, 6.733E+002, 1.861E-002, 2.040E-002, 8.106E+001
 2.480E+002, 3.689E+002, 6.738E+002, 1.828E-002, 2.040E-002, 8.116E+001
 2.500E+002, 3.724E+002, 6.769E+002, 1.822E-002, 2.040E-002, 8.311E+001
 2.520E+002, 3.699E+002, 6.778E+002, 1.826E-002, 2.040E-002, 8.248E+001
 2.540E+002, 3.654E+002, 6.806E+002, 1.829E-002, 2.040E-002, 8.280E+001
 2.560E+002, 3.693E+002, 6.823E+002, 1.830E-002, 2.040E-002, 8.448E+001
 2.580E+002, 3.614E+002, 6.867E+002, 1.843E-002, 2.040E-002, 8.471E+001
 2.600E+002, 3.682E+002, 6.839E+002, 1.842E-002, 2.040E-002, 8.314E+001
 2.620E+002, 3.655E+002, 6.847E+002, 1.818E-002, 2.040E-002, 8.256E+001
 2.640E+002, 3.606E+002, 6.831E+002, 1.801E-002, 2.040E-002, 8.093E+001
 2.660E+002, 3.653E+002, 6.827E+002, 1.771E-002, 2.040E-002, 8.190E+001
 2.680E+002, 3.609E+002, 6.833E+002, 1.751E-002, 2.040E-002, 8.086E+001
 2.700E+002, 3.596E+002, 6.839E+002, 1.738E-002, 2.040E-002, 8.186E+001
 2.720E+002, 3.584E+002, 6.863E+002, 1.732E-002, 2.040E-002, 8.129E+001
 2.740E+002, 3.565E+002, 6.893E+002, 1.728E-002, 2.040E-002, 8.407E+001
 2.760E+002, 3.566E+002, 6.885E+002, 1.732E-002, 2.040E-002, 8.159E+001
 2.780E+002, 3.528E+002, 6.887E+002, 1.717E-002, 2.040E-002, 8.246E+001
 2.800E+002, 3.518E+002, 6.939E+002, 1.709E-002, 2.040E-002, 8.539E+001
 2.820E+002, 3.497E+002, 6.952E+002, 1.719E-002, 2.040E-002, 8.428E+001
 2.840E+002, 3.459E+002, 6.960E+002, 1.720E-002, 2.040E-002, 8.329E+001
 2.860E+002, 3.491E+002, 6.954E+002, 1.707E-002, 2.040E-002, 8.436E+001
 2.880E+002, 3.424E+002, 6.967E+002, 1.695E-002, 2.040E-002, 8.325E+001
 2.900E+002, 3.415E+002, 6.977E+002, 1.689E-002, 2.040E-002, 8.297E+001
 2.920E+002, 3.414E+002, 6.959E+002, 1.676E-002, 2.040E-002, 8.277E+001
 2.940E+002, 3.362E+002, 6.971E+002, 1.657E-002, 2.040E-002, 8.261E+001
 2.960E+002, 3.385E+002, 6.994E+002, 1.644E-002, 2.040E-002, 8.451E+001
 2.980E+002, 3.343E+002, 6.981E+002, 1.640E-002, 2.040E-002, 8.179E+001
 3.000E+002, 3.333E+002, 6.968E+002, 1.624E-002, 2.040E-002, 8.169E+001
 3.020E+002, 3.318E+002, 6.967E+002, 1.603E-002, 2.040E-002, 8.161E+001
 3.040E+002, 3.288E+002, 6.980E+002, 1.585E-002, 2.040E-002, 8.153E+001
 3.060E+002, 3.248E+002, 6.967E+002, 1.573E-002, 2.040E-002, 8.089E+001
 3.080E+002, 3.260E+002, 6.963E+002, 1.555E-002, 2.040E-002, 8.069E+001
 3.100E+002, 3.162E+002, 7.004E+002, 1.539E-002, 2.040E-002, 8.331E+001
 3.120E+002, 3.217E+002, 7.020E+002, 1.538E-002, 2.040E-002, 8.329E+001
 3.140E+002, 3.161E+002, 7.020E+002, 1.539E-002, 2.040E-002, 8.200E+001
 3.160E+002, 3.179E+002, 7.015E+002, 1.533E-002, 2.040E-002, 8.131E+001
 3.180E+002, 3.128E+002, 7.028E+002, 1.521E-002, 2.040E-002, 8.279E+001
 3.200E+002, 3.106E+002, 7.088E+002, 1.513E-002, 2.040E-002, 8.618E+001
 3.220E+002, 3.094E+002, 7.065E+002, 1.520E-002, 2.040E-002, 8.279E+001
 3.240E+002, 3.077E+002, 7.052E+002, 1.514E-002, 2.040E-002, 8.152E+001
 3.260E+002, 3.047E+002, 7.056E+002, 1.498E-002, 2.040E-002, 8.182E+001
 3.280E+002, 3.082E+002, 7.032E+002, 1.483E-002, 2.040E-002, 8.076E+001
 3.300E+002, 2.998E+002, 7.063E+002, 1.464E-002, 2.040E-002, 8.247E+001
 3.320E+002, 3.004E+002, 7.071E+002, 1.454E-002, 2.040E-002, 8.235E+001
 3.340E+002, 2.987E+002, 7.066E+002, 1.446E-002, 2.040E-002, 8.223E+001
 3.360E+002, 2.947E+002, 7.090E+002, 1.436E-002, 2.040E-002, 8.282E+001
 3.380E+002, 2.953E+002, 7.111E+002, 1.431E-002, 2.040E-002, 8.380E+001
 3.400E+002, 2.898E+002, 7.090E+002, 1.428E-002, 2.040E-002, 8.168E+001
 3.420E+002, 2.887E+002, 7.147E+002, 1.418E-002, 2.040E-002, 8.584E+001
 3.440E+002, 2.888E+002, 7.178E+002, 1.419E-002, 2.040E-002, 8.614E+001
 3.460E+002, 2.869E+002, 7.169E+002, 1.423E-002, 2.040E-002, 8.495E+001
 3.480E+002, 2.836E+002, 7.169E+002, 1.418E-002, 2.040E-002, 8.439E+001
 3.500E+002, 2.805E+002, 7.201E+002, 1.410E-002, 2.040E-002, 8.653E+001
 3.520E+002, 2.805E+002, 7.199E+002, 1.406E-002, 2.040E-002, 8.488E+001
 3.540E+002, 2.734E+002, 7.198E+002, 1.400E-002, 2.040E-002, 8.361E+001
 3.560E+002, 2.760E+002, 7.152E+002, 1.388E-002, 2.040E-002, 8.201E+001
 3.580E+002, 2.750E+002, 7.140E+002, 1.363E-002, 2.040E-002, 8.158E+001
 3.600E+002, 2.699E+002, 7.153E+002, 1.336E-002, 2.040E-002, 8.264E+001
 3.620E+002, 2.686E+002, 7.187E+002, 1.315E-002, 2.040E-002, 8.380E+001
 3.640E+002, 2.645E+002, 7.162E+002, 1.305E-002, 2.040E-002, 8.195E+001
 3.660E+002, 2.626E+002, 7.199E+002, 1.291E-002, 2.040E-002, 8.491E+001
 3.680E+002, 2.615E+002, 7.208E+002, 1.280E-002, 2.040E-002, 8.368E+001
 3.700E+002, 2.585E+002, 7.191E+002, 1.272E-002, 2.040E-002, 8.265E+001
 3.720E+002, 2.540E+002, 7.187E+002, 1.257E-002, 2.040E-002, 8.240E+001
 3.740E+002, 2.514E+002, 7.192E+002, 1.237E-002, 2.040E-002, 8.212E+001
 3.760E+002, 2.481E+002, 7.195E+002, 1.217E-002, 2.040E-002, 8.192E+001
 3.780E+002, 2.448E+002, 7.192E+002, 1.198E-002, 2.040E-002, 8.289E+001
 3.800E+002, 2.442E+002, 7.215E+002, 1.175E-002, 2.040E-002, 8.307E+001
 3.820E+002, 2.372E+002, 7.225E+002, 1.157E-002, 2.040E-002, 8.348E+001
 3.840E+002, 2.324E+002, 7.216E+002, 1.138E-002, 2.040E-002, 8.146E+001
 3.860E+002, 2.277E+002, 7.232E+002, 1.115E-002, 2.040E-002, 8.325E+001
 3.880E+002, 2.213E+002, 7.300E+002, 1.090E-002, 2.040E-002, 8.694E+001
 3.900E+002, 2.137E+002, 7.273E+002, 1.072E-002, 2.040E-002, 8.346E+001
 3.920E+002, 2.028E+002, 7.301E+002, 1.046E-002, 2.040E-002, 8.550E+001
 3.940E+002, 1.902E+002, 7.308E+002, 1.012E-002, 2.040E-002, 8.537E+001
 3.960E+002, 1.777E+002, 7.318E+002, 9.697E-003, 2.040E-002, 8.499E+001
 3.980E+002, 1.647E+002, 7.328E+002, 9.171E-003, 2.040E-002, 8.508E+001
 4.000E+002, 1.570E+002, 7.324E+002, 8.498E-003, 2.040E-002, 8.418E+001
 4.020E+002, 1.534E+002, 7.357E+002, 7.604E-003, 2.040E-002, 8.620E+001
 4.040E+002, 1.492E+002, 7.332E+002, 6.415E-003, 2.040E-002, 8.308E+001
 4.060E+002, 1.448E+002, 7.362E+002, 4.729E-003, 2.040E-002, 8.505E+001
 4.080E+002, 1.411E+002, 7.354E+002, 2.515E-003, 2.040E-002, 8.220E+001
 4.100E+002, 1.357E+002, 7.350E+002, 5.878E-004, 2.040E-002, 8.113E+001
 4.120E+002, 1.320E+002, 7.340E+002, 2.683E-005, 2.040E-002, 7.966E+001
 4.140E+002, 1.293E+002, 7.284E+002, 1.234E-007, 2.040E-002, 7.434E+001
 4.160E+002, 1.270E+002, 7.305E+002, 3.922E-011, 2.040E-002, 7.838E+001
 4.180E+002, 1.242E+002, 7.308E+002, 6.964E-016, 2.040E-002, 7.502E+001
 4.200E+002, 1.223E+002, 7.327E+002, 6.564E-022, 2.040E-002, 7.643E+001
 4.220E+002, 1.203E+002, 7.343E+002, 2.547E-029, 2.040E-002, 7.601E+001
 4.240E+002, 1.184E+002, 7.390E+002, 3.578E-038, 2.040E-002, 7.805E+001
 4.260E+002, 1.164E+002, 7.378E+002, 1.476E-048, 2.040E-002, 7.443E+001
 4.280E+002, 1.141E+002, 7.327E+002, 1.150E-060, 2.040E-002, 7.252E+001
 4.300E+002, 1.118E+002, 7.327E+002, 1.077E-074, 2.040E-002, 7.251E+001
 4.320E+002, 1.097E+002, 7.318E+002, 2.854E-090, 2.040E-002, 7.175E+001
 4.340E+002, 1.066E+002, 7.334E+002, 4.652E-107, 2.040E-002, 7.295E+001
 4.360E+002, 1.036E+002, 7.344E+002, 7.866E-125, 2.040E-002, 7.267E+001
 4.380E+002, 1.005E+002, 7.294E+002, 1.284E-143, 2.040E-002, 6.943E+001
 4.400E+002, 9.716E+001, 7.272E+002, 2.149E-163, 2.040E-002, 6.978E+001
 4.420E+002, 9.423E+001, 7.201E+002, 6.292E-184, 2.040E-002, 6.578E+001
 4.440E+002, 9.183E+001, 7.175E+002, 8.343E-205, 2.040E-002, 6.711E+001
 4.460E+002, 8.953E+001, 7.188E+002, 2.272E-225, 2.040E-002, 6.758E+001
 4.480E+002, 8.708E+001, 7.168E+002, 5.370E-245, 2.040E-002, 6.616E+001
 4.500E+002, 8.454E+001, 7.132E+002, 9.066E-264, 2.040E-002, 6.560E+001
 4.520E+002, 8.243E+001, 7.122E+002, 6.530E-282, 2.040E-002, 6.597E+001
 4.540E+002, 8.076E+001, 7.075E+002, 0.000E+000, 2.040E-002, 6.398E+001
 4.560E+002, 7.950E+001, 7.035E+002, 0.000E+000, 2.040E-002, 6.339E+001
 4.580E+002, 7.833E+001, 7.006E+002, 0.000E+000, 2.040E-002, 6.317E+001
 4.600E+002, 7.728E+001, 7.040E+002, 0.000E+000, 2.040E-002, 6.512E+001
 4.620E+002, 7.609E+001, 7.037E+002, 0.000E+000, 2.040E-002, 6.477E+001
 4.640E+002, 7.470E+001, 6.995E+002, 0.000E+000, 2.040E-002, 6.219E+001
 4.660E+002, 7.339E+001, 6.947E+002, 0.000E+000, 2.040E-002, 6.204E+001
 4.680E+002, 7.201E+001, 6.941E+002, 0.000E+000, 2.040E-002, 6.224E+001
 4.700E+002, 7.043E+001, 6.972E+002, 0.000E+000, 2.040E-002, 6.396E+001
 4.720E+002, 6.858E+001, 6.957E+002, 0.000E+000, 2.040E-002, 6.265E+001
 4.740E+002, 6.669E+001, 6.932E+002, 0.000E+000, 2.040E-002, 6.208E+001
 4.760E+002, 6.487E+001, 6.937E+002, 0.000E+000, 2.040E-002, 6.193E+001
 4.780E+002, 6.343E+001, 6.907E+002, 0.000E+000, 2.040E-002, 6.190E+001
 4.800E+002, 6.231E+001, 6.906E+002, 0.000E+000, 2.040E-002, 6.090E+001
 4.820E+002, 6.130E+001, 6.879E+002, 0.000E+000, 2.040E-002, 6.061E+001
 4.840E+002, 6.050E+001, 6.855E+002, 0.000E+000, 2.040E-002, 5.992E+001
 4.860E+002, 5.970E+001, 6.842E+002, 0.000E+000, 2.040E-002, 5.991E+001
 4.880E+002, 5.903E+001, 6.838E+002, 0.000E+000, 2.040E-002, 6.014E+001
 4.900E+002, 5.847E+001, 6.836E+002, 0.000E+000, 2.040E-002, 6.021E+001
 4.920E+002, 5.784E+001, 6.835E+002, 0.000E+000, 2.040E-002, 6.026E+001
 4.940E+002, 5.731E+001, 6.842E+002, 0.000E+000, 2.040E-002, 6.069E+001
 4.960E+002, 5.665E+001, 6.795E+002, 0.000E+000, 2.040E-002, 5.849E+001
 4.980E+002, 5.607E+001, 6.772E+002, 0.000E+000, 2.040E-002, 5.880E+001
 5.000E+002, 5.550E+001, 6.784E+002, 0.000E+000, 2.040E-002, 5.984E+001
 5.020E+002, 5.488E+001, 6.768E+002, 0.000E+000, 2.040E-002, 5.887E+001
 5.040E+002, 5.422E+001, 6.785E+002, 0.000E+000, 2.040E-002, 5.986E+001
 5.060E+002, 5.359E+001, 6.766E+002, 0.000E+000, 2.040E-002, 5.873E+001
 5.080E+002, 5.293E+001, 6.775E+002, 0.000E+000, 2.040E-002, 5.980E+001
 5.100E+002, 5.224E+001, 6.776E+002, 0.000E+000, 2.040E-002, 5.943E+001
 5.120E+002, 5.165E+001, 6.764E+002, 0.000E+000, 2.040E-002, 5.880E+001
 5.140E+002, 5.101E+001, 6.733E+002, 0.000E+000, 2.040E-002, 5.806E+001
 5.160E+002, 5.029E+001, 6.713E+002, 0.000E+000, 2.040E-002, 5.806E+001
 5.180E+002, 4.963E+001, 6.712E+002, 0.000E+000, 2.040E-002, 5.820E+001
 5.200E+002, 4.879E+001, 6.723E+002, 0.000E+000, 2.040E-002, 5.846E+001
 5.220E+002, 4.799E+001, 6.727E+002, 0.000E+000, 2.040E-002, 5.876E+001
 5.240E+002, 4.713E+001, 6.696E+002, 0.000E+000, 2.040E-002, 5.771E+001
 5.260E+002, 4.634E+001, 6.734E+002, 0.000E+000, 2.040E-002, 5.932E+001
 5.280E+002, 4.558E+001, 6.712E+002, 0.000E+000, 2.040E-002, 5.771E+001
 5.300E+002, 4.481E+001, 6.690E+002, 0.000E+000, 2.040E-002, 5.787E+001
 5.320E+002, 4.417E+001, 6.712E+002, 0.000E+000, 2.040E-002, 5.825E+001
 5.340E+002, 4.353E+001, 6.688E+002, 0.000E+000, 2.040E-002, 5.766E+001
 5.360E+002, 4.301E+001, 6.694E+002, 0.000E+000, 2.040E-002, 5.778E+001
 5.380E+002, 4.247E+001, 6.678E+002, 0.000E+000, 2.040E-002, 5.722E+001
 5.400E+002, 4.187E+001, 6.657E+002, 0.000E+000, 2.040E-002, 5.685E+001
 5.420E+002, 4.137E+001, 6.645E+002, 0.000E+000, 2.040E-002, 5.664E+001
 5.440E+002, 4.081E+001, 6.651E+002, 0.000E+000, 2.040E-002, 5.707E+001
 5.460E+002, 4.032E+001, 6.637E+002, 0.000E+000, 2.040E-002, 5.684E+001
 5.480E+002, 3.985E+001, 6.650E+002, 0.000E+000, 2.040E-002, 5.719E+001
 5.500E+002, 3.933E+001, 6.647E+002, 0.000E+000, 2.040E-002, 5.712E+001
