s,C,kg/m2/s,m
Time,"temp","MLR","thick"
 0.0000000E+000, 2.0000000E+001, 0.0000000E+000, 3.1534299E-002
 5.1000000E+000, 6.3171436E+001, 0.0000000E+000, 3.1534299E-002
 1.0100000E+001, 1.2561325E+002, 0.0000000E+000, 3.1534299E-002
 1.5100000E+001, 1.6283337E+002, 7.8789632E-020, 3.1534299E-002
 2.0000000E+001, 1.9333939E+002, 5.5872735E-017, 3.1534299E-002
 2.5000000E+001, 2.2470097E+002, 1.1884563E-014, 3.1534299E-002
 3.0000000E+001, 2.5280405E+002, 8.9091977E-013, 3.1534299E-002
 3.5000000E+001, 2.7779541E+002, 2.9899985E-011, 3.1534299E-002
 4.0000000E+001, 3.0019183E+002, 5.4798405E-010, 3.1534299E-002
 4.5000000E+001, 3.2045444E+002, 6.4504557E-009, 3.1534299E-002
 5.0000000E+001, 3.3877271E+002, 5.3381470E-008, 3.1534299E-002
 5.5000000E+001, 3.5540292E+002, 3.2928611E-007, 3.1534299E-002
 6.0000000E+001, 3.7063812E+002, 1.6162020E-006, 3.1534296E-002
 6.5000000E+001, 3.8457785E+002, 6.5513368E-006, 3.1534273E-002
 7.0000000E+001, 3.9737173E+002, 2.2562035E-005, 3.1534202E-002
 7.5000000E+001, 4.0911829E+002, 6.7699853E-005, 3.1533971E-002
 8.0100000E+001, 4.1989261E+002, 1.8039341E-004, 3.1533320E-002
 8.5100000E+001, 4.2948239E+002, 4.2125111E-004, 3.1531714E-002
 9.0100000E+001, 4.3758292E+002, 8.5242832E-004, 3.1528290E-002
 9.5100000E+001, 4.4409433E+002, 1.4949564E-003, 3.1521894E-002
 1.0010000E+002, 4.4900690E+002, 2.2860414E-003, 3.1511508E-002
 1.0510000E+002, 4.5256268E+002, 3.1185953E-003, 3.1496610E-002
 1.1010000E+002, 4.5512601E+002, 3.9125723E-003, 3.1477224E-002
 1.1510000E+002, 4.5702203E+002, 4.6366025E-003, 3.1453662E-002
 1.2010000E+002, 4.5847821E+002, 5.2891322E-003, 3.1426325E-002
 1.2510000E+002, 4.5901541E+002, 5.7582804E-003, 3.1395748E-002
 1.3010000E+002, 4.5951535E+002, 6.2562828E-003, 3.1362917E-002
 1.3510000E+002, 4.6052341E+002, 6.8227998E-003, 3.1326912E-002
 1.4010000E+002, 4.6135080E+002, 7.3284195E-003, 3.1287991E-002
 1.4510000E+002, 4.6207928E+002, 7.8124604E-003, 3.1246362E-002
 1.5010000E+002, 4.6273871E+002, 8.2897302E-003, 3.1202098E-002
 1.5510000E+002, 4.6334085E+002, 8.7647345E-003, 3.1155217E-002
 1.6010000E+002, 4.6386707E+002, 9.2379507E-003, 3.1105733E-002
 1.6510000E+002, 4.6309964E+002, 9.5418440E-003, 3.1054119E-002
 1.7010000E+002, 4.6371628E+002, 1.0062899E-002, 3.1000264E-002
 1.7510000E+002, 4.6430103E+002, 1.0580578E-002, 3.0943509E-002
 1.8010000E+002, 4.6482074E+002, 1.1075268E-002, 3.0883979E-002
 1.8510000E+002, 4.6528644E+002, 1.1554612E-002, 3.0821778E-002
 1.9010000E+002, 4.6495041E+002, 1.1908198E-002, 3.0757178E-002
 1.9510000E+002, 4.6503561E+002, 1.2353284E-002, 3.0690653E-002
 2.0010000E+002, 4.6552927E+002, 1.2872593E-002, 3.0621305E-002
 2.0510000E+002, 4.6596411E+002, 1.3359258E-002, 3.0549202E-002
 2.1010000E+002, 4.6612750E+002, 1.3792289E-002, 3.0474503E-002
 2.1510000E+002, 4.6568726E+002, 1.4124468E-002, 3.0397901E-002
 2.2010000E+002, 4.6613580E+002, 1.4650549E-002, 3.0318804E-002
 2.2510000E+002, 4.6653394E+002, 1.5135958E-002, 3.0236932E-002
 2.3010000E+002, 4.6654294E+002, 1.5534563E-002, 3.0152529E-002
 2.3510000E+002, 4.6628525E+002, 1.5907554E-002, 3.0066282E-002
 2.4010000E+002, 4.6668759E+002, 1.6417079E-002, 2.9977424E-002
 2.4510000E+002, 4.6703970E+002, 1.6880149E-002, 2.9885907E-002
 2.5010000E+002, 4.6658588E+002, 1.7183149E-002, 2.9792260E-002
 2.5510000E+002, 4.6682755E+002, 1.7655732E-002, 2.9696587E-002
 2.6010000E+002, 4.6717477E+002, 1.8105516E-002, 2.9598292E-002
 2.6510000E+002, 4.6693671E+002, 1.8409627E-002, 2.9497843E-002
 2.7010000E+002, 4.6696780E+002, 1.8796939E-002, 2.9395727E-002
 2.7510000E+002, 4.6730319E+002, 1.9193443E-002, 2.9291300E-002
 2.8010000E+002, 4.6709326E+002, 1.9432280E-002, 2.9185055E-002
 2.8510000E+002, 4.6710632E+002, 1.9736448E-002, 2.9077545E-002
 2.9010000E+002, 4.6742618E+002, 2.0038895E-002, 2.8968217E-002
 2.9510000E+002, 4.6712805E+002, 2.0169314E-002, 2.8857660E-002
 3.0010000E+002, 4.6724213E+002, 2.0403432E-002, 2.8746262E-002
 3.0500000E+002, 4.6754456E+002, 2.0606054E-002, 2.8634682E-002
 3.1000000E+002, 4.6710150E+002, 2.0636579E-002, 2.8522510E-002
 3.1500000E+002, 4.6737610E+002, 2.0832522E-002, 2.8408574E-002
 3.2000000E+002, 4.6753796E+002, 2.0941660E-002, 2.8293718E-002
 3.2500000E+002, 4.6719794E+002, 2.0963961E-002, 2.8178694E-002
 3.3000000E+002, 4.6752444E+002, 2.1121269E-002, 2.8063025E-002
 3.3500000E+002, 4.6745886E+002, 2.1147095E-002, 2.7946791E-002
 3.4000000E+002, 4.6738193E+002, 2.1220377E-002, 2.7830523E-002
 3.4500000E+002, 4.6770981E+002, 2.1329449E-002, 2.7713584E-002
 3.5000000E+002, 4.6743390E+002, 2.1301715E-002, 2.7596425E-002
 3.5500000E+002, 4.6761502E+002, 2.1406153E-002, 2.7479142E-002
 3.6000000E+002, 4.6787024E+002, 2.1452816E-002, 2.7361335E-002
 3.6500000E+002, 4.6756018E+002, 2.1423055E-002, 2.7243629E-002
 3.7000000E+002, 4.6795221E+002, 2.1506185E-002, 2.7125632E-002
 3.7500000E+002, 4.6800302E+002, 2.1472890E-002, 2.7007485E-002
 3.8000000E+002, 4.6803659E+002, 2.1482555E-002, 2.6889559E-002
 3.8500000E+002, 4.6850754E+002, 2.1480277E-002, 2.6771493E-002
 3.9000000E+002, 4.6846048E+002, 2.1391390E-002, 2.6653700E-002
 3.9500000E+002, 4.6892966E+002, 2.1356545E-002, 2.6536267E-002
 4.0000000E+002, 4.6955630E+002, 2.1263523E-002, 2.6419150E-002
 4.0500000E+002, 4.6986823E+002, 2.1089485E-002, 2.6302828E-002
 4.1000000E+002, 4.7097049E+002, 2.0955071E-002, 2.6187291E-002
 4.1500000E+002, 4.7224036E+002, 2.0699408E-002, 2.6072746E-002
 4.2000000E+002, 4.7400671E+002, 2.0411953E-002, 2.5959915E-002
 4.2500000E+002, 4.7665472E+002, 2.0128658E-002, 2.5848510E-002
 4.3000000E+002, 4.8112701E+002, 1.9530572E-002, 2.5739353E-002
 4.3500000E+002, 4.8733090E+002, 1.9068584E-002, 2.5633495E-002
 4.4000000E+002, 4.9735733E+002, 1.8304266E-002, 2.5530564E-002
 4.4500000E+002, 5.2328455E+002, 8.4926235E-003, 2.5445923E-002
 4.5000000E+002, 5.1837158E+002, 0.0000000E+000, 2.5434300E-002
 4.5500000E+002, 5.1361938E+002, 0.0000000E+000, 2.5434300E-002
 4.6000000E+002, 5.1232849E+002, 0.0000000E+000, 2.5434300E-002
 4.6500000E+002, 5.1220050E+002, 0.0000000E+000, 2.5434300E-002
 4.7000000E+002, 5.1259113E+002, 0.0000000E+000, 2.5434300E-002
 4.7500000E+002, 5.1323706E+002, 0.0000000E+000, 2.5434300E-002
 4.8000000E+002, 5.1400916E+002, 0.0000000E+000, 2.5434300E-002
 4.8500000E+002, 5.1483844E+002, 0.0000000E+000, 2.5434300E-002
 4.9000000E+002, 5.1568634E+002, 0.0000000E+000, 2.5434300E-002
 4.9500000E+002, 5.1653046E+002, 0.0000000E+000, 2.5434300E-002
 5.0000000E+002, 5.1735773E+002, 0.0000000E+000, 2.5434300E-002
 5.0500000E+002, 5.1816058E+002, 0.0000000E+000, 2.5434300E-002
 5.1000000E+002, 5.1893469E+002, 0.0000000E+000, 2.5434300E-002
 5.1500000E+002, 5.1967780E+002, 0.0000000E+000, 2.5434300E-002
 5.2000000E+002, 5.2038898E+002, 0.0000000E+000, 2.5434300E-002
 5.2500000E+002, 5.2106818E+002, 0.0000000E+000, 2.5434300E-002
 5.3000000E+002, 5.2171576E+002, 0.0000000E+000, 2.5434300E-002
 5.3500000E+002, 5.2233252E+002, 0.0000000E+000, 2.5434300E-002
 5.4000000E+002, 5.2291937E+002, 0.0000000E+000, 2.5434300E-002
 5.4500000E+002, 5.2347736E+002, 0.0000000E+000, 2.5434300E-002
 5.5000000E+002, 5.2400757E+002, 0.0000000E+000, 2.5434300E-002
 5.5500000E+002, 5.2451111E+002, 0.0000000E+000, 2.5434300E-002
 5.6000000E+002, 5.2498926E+002, 0.0000000E+000, 2.5434300E-002
 5.6500000E+002, 5.2544299E+002, 0.0000000E+000, 2.5434300E-002
 5.7000000E+002, 5.2587354E+002, 0.0000000E+000, 2.5434300E-002
 5.7500000E+002, 5.2628180E+002, 0.0000000E+000, 2.5434300E-002
 5.8000000E+002, 5.2666895E+002, 0.0000000E+000, 2.5434300E-002
 5.8500000E+002, 5.2703601E+002, 0.0000000E+000, 2.5434300E-002
 5.9000000E+002, 5.2738379E+002, 0.0000000E+000, 2.5434300E-002
 5.9500000E+002, 5.2771338E+002, 0.0000000E+000, 2.5434300E-002
 6.0000000E+002, 5.2802563E+002, 0.0000000E+000, 2.5434300E-002
 6.0500000E+002, 5.2832135E+002, 0.0000000E+000, 2.5434300E-002
 6.1000000E+002, 5.2860138E+002, 0.0000000E+000, 2.5434300E-002
 6.1500000E+002, 5.2886658E+002, 0.0000000E+000, 2.5434300E-002
 6.2000000E+002, 5.2911755E+002, 0.0000000E+000, 2.5434300E-002
 6.2500000E+002, 5.2935516E+002, 0.0000000E+000, 2.5434300E-002
 6.3000000E+002, 5.2958002E+002, 0.0000000E+000, 2.5434300E-002
 6.3500000E+002, 5.2979279E+002, 0.0000000E+000, 2.5434300E-002
 6.4000000E+002, 5.2999408E+002, 0.0000000E+000, 2.5434300E-002
 6.4500000E+002, 5.3018451E+002, 0.0000000E+000, 2.5434300E-002
 6.5000000E+002, 5.3036462E+002, 0.0000000E+000, 2.5434300E-002
 6.5500000E+002, 5.3053503E+002, 0.0000000E+000, 2.5434300E-002
 6.6000000E+002, 5.3069617E+002, 0.0000000E+000, 2.5434300E-002
 6.6500000E+002, 5.3084851E+002, 0.0000000E+000, 2.5434300E-002
 6.7000000E+002, 5.3099261E+002, 0.0000000E+000, 2.5434300E-002
 6.7500000E+002, 5.3112878E+002, 0.0000000E+000, 2.5434300E-002
 6.8000000E+002, 5.3125757E+002, 0.0000000E+000, 2.5434300E-002
 6.8500000E+002, 5.3137927E+002, 0.0000000E+000, 2.5434300E-002
 6.9000000E+002, 5.3149438E+002, 0.0000000E+000, 2.5434300E-002
 6.9500000E+002, 5.3160309E+002, 0.0000000E+000, 2.5434300E-002
 7.0000000E+002, 5.3170587E+002, 0.0000000E+000, 2.5434300E-002
