s,C,kg/m2/s,m
Time,"temp","MLR","thick"
 0.0000000E+000, 2.0000000E+001, 0.0000000E+000, 1.8500000E-002
 5.0100000E+000, 7.9982239E+001, 4.4456616E-014, 1.8500000E-002
 1.0010000E+001, 1.5464265E+002, 1.2621336E-010, 1.8500000E-002
 1.5010000E+001, 2.0510988E+002, 1.5535271E-008, 1.8500000E-002
 2.0000000E+001, 2.4474873E+002, 4.3959338E-007, 1.8500000E-002
 2.5000000E+001, 2.7757471E+002, 5.3198155E-006, 1.8499989E-002
 3.0000000E+001, 3.0550989E+002, 3.6981586E-005, 1.8499913E-002
 3.5000000E+001, 3.2952292E+002, 1.7320152E-004, 1.8499501E-002
 4.0000000E+001, 3.4999203E+002, 5.9439579E-004, 1.8497908E-002
 4.5010000E+001, 3.6677008E+002, 1.5490482E-003, 1.8493269E-002
 5.0010000E+001, 3.7951276E+002, 3.1144170E-003, 1.8482853E-002
 5.5010000E+001, 3.8841321E+002, 5.0037452E-003, 1.8464435E-002
 6.0010000E+001, 3.9437851E+002, 6.8192147E-003, 1.8437473E-002
 6.5010000E+001, 3.9843771E+002, 8.3592143E-003, 1.8402854E-002
 7.0010000E+001, 4.0133551E+002, 9.6090734E-003, 1.8361909E-002
 7.5000000E+001, 4.0021075E+002, 1.0172132E-002, 1.8317027E-002
 8.0000000E+001, 4.0259424E+002, 1.1279543E-002, 1.8268209E-002
 8.5000000E+001, 4.0447098E+002, 1.2086716E-002, 1.8215019E-002
 9.0000000E+001, 4.0597574E+002, 1.2727623E-002, 1.8158572E-002
 9.5000000E+001, 4.0721454E+002, 1.3258413E-002, 1.8099474E-002
 1.0000000E+002, 4.0554373E+002, 1.3446945E-002, 1.8038576E-002
 1.0500000E+002, 4.0575095E+002, 1.3889506E-002, 1.7976679E-002
 1.1000000E+002, 4.0714719E+002, 1.4380887E-002, 1.7912373E-002
 1.1500000E+002, 4.0829697E+002, 1.4762470E-002, 1.7846106E-002
 1.2000000E+002, 4.0822885E+002, 1.4964494E-002, 1.7778331E-002
 1.2500000E+002, 4.0655066E+002, 1.5048023E-002, 1.7710397E-002
 1.3000000E+002, 4.0792740E+002, 1.5487666E-002, 1.7640939E-002
 1.3500000E+002, 4.0905496E+002, 1.5803963E-002, 1.7569786E-002
 1.4000000E+002, 4.0927441E+002, 1.5970988E-002, 1.7497398E-002
 1.4500000E+002, 4.0730460E+002, 1.5947867E-002, 1.7425105E-002
 1.5000000E+002, 4.0865195E+002, 1.6351832E-002, 1.7351635E-002
 1.5500000E+002, 4.0975146E+002, 1.6629297E-002, 1.7276645E-002
 1.6001000E+002, 4.0945056E+002, 1.6698014E-002, 1.7200584E-002
 1.6501000E+002, 4.0812878E+002, 1.6749915E-002, 1.7124811E-002
 1.7001000E+002, 4.0942609E+002, 1.7115133E-002, 1.7047781E-002
 1.7501000E+002, 4.1047830E+002, 1.7362799E-002, 1.6969394E-002
 1.8001000E+002, 4.0913226E+002, 1.7297847E-002, 1.6890401E-002
 1.8501000E+002, 4.0905630E+002, 1.7529916E-002, 1.6811531E-002
 1.9001000E+002, 4.1027087E+002, 1.7846784E-002, 1.6731078E-002
 1.9501000E+002, 4.1108939E+002, 1.8050088E-002, 1.6649425E-002
 2.0001000E+002, 4.0871808E+002, 1.7905015E-002, 1.6567864E-002
 2.0501000E+002, 4.1007803E+002, 1.8316727E-002, 1.6485479E-002
 2.1001000E+002, 4.1118951E+002, 1.8589363E-002, 1.6401565E-002
 2.1501000E+002, 4.1004214E+002, 1.8545881E-002, 1.6316939E-002
 2.2001000E+002, 4.0993619E+002, 1.8791303E-002, 1.6232379E-002
 2.2501000E+002, 4.1116519E+002, 1.9127289E-002, 1.6146144E-002
 2.3001000E+002, 4.1126392E+002, 1.9246997E-002, 1.6058702E-002
 2.3501000E+002, 4.0989102E+002, 1.9295137E-002, 1.5971424E-002
 2.4001000E+002, 4.1122144E+002, 1.9703798E-002, 1.5882716E-002
 2.4501000E+002, 4.1219806E+002, 1.9969955E-002, 1.5792489E-002
 2.5001000E+002, 4.0998248E+002, 1.9864911E-002, 1.5702106E-002
 2.5501000E+002, 4.1137732E+002, 2.0335959E-002, 1.5610664E-002
 2.6001000E+002, 4.1251184E+002, 2.0653294E-002, 1.5517469E-002
 2.6501000E+002, 4.1053616E+002, 2.0575214E-002, 1.5423792E-002
 2.7001000E+002, 4.1165790E+002, 2.1043578E-002, 1.5329229E-002
 2.7501000E+002, 4.1282913E+002, 2.1394799E-002, 1.5232736E-002
 2.8001000E+002, 4.1095673E+002, 2.1347009E-002, 1.5135616E-002
 2.8501000E+002, 4.1207138E+002, 2.1843886E-002, 1.5037484E-002
 2.9001000E+002, 4.1323727E+002, 2.2218805E-002, 1.4937297E-002
 2.9501000E+002, 4.1118597E+002, 2.2187419E-002, 1.4836513E-002
 3.0001000E+002, 4.1262091E+002, 2.2753423E-002, 1.4734280E-002
 3.0501000E+002, 4.1309811E+002, 2.3040881E-002, 1.4629975E-002
 3.1001000E+002, 4.1190521E+002, 2.3226818E-002, 1.4525137E-002
 3.1501000E+002, 4.1329373E+002, 2.3781922E-002, 1.4418207E-002
 3.2001000E+002, 4.1279678E+002, 2.3965279E-002, 1.4309443E-002
 3.2501000E+002, 4.1277310E+002, 2.4414910E-002, 1.4199798E-002
 3.3001000E+002, 4.1407220E+002, 2.4943303E-002, 1.4087554E-002
 3.3501000E+002, 4.1242542E+002, 2.5058668E-002, 1.3974003E-002
 3.4001000E+002, 4.1373669E+002, 2.5735015E-002, 1.3858511E-002
 3.4501000E+002, 4.1353305E+002, 2.6037682E-002, 1.3740581E-002
 3.5001000E+002, 4.1343433E+002, 2.6560966E-002, 1.3621358E-002
 3.5501000E+002, 4.1445444E+002, 2.7117565E-002, 1.3499176E-002
 3.6001000E+002, 4.1319150E+002, 2.7410097E-002, 1.3375504E-002
 3.6501000E+002, 4.1462735E+002, 2.8134787E-002, 1.3249139E-002
 3.7001000E+002, 4.1357101E+002, 2.8391175E-002, 1.3120634E-002
 3.7501000E+002, 4.1456555E+002, 2.9095620E-002, 1.2990026E-002
 3.8001000E+002, 4.1407727E+002, 2.9390594E-002, 1.2856908E-002
 3.8501000E+002, 4.1457431E+002, 2.9997680E-002, 1.2722124E-002
 3.9001000E+002, 4.1445401E+002, 3.0292172E-002, 1.2584834E-002
 3.9501000E+002, 4.1464944E+002, 3.0781779E-002, 1.2446278E-002
 4.0001000E+002, 4.1472610E+002, 3.1030307E-002, 1.2305502E-002
 4.0501000E+002, 4.1479498E+002, 3.1418856E-002, 1.2163839E-002
 4.1001000E+002, 4.1495569E+002, 3.1603847E-002, 1.2020309E-002
 4.1501000E+002, 4.1502112E+002, 3.1914983E-002, 1.1876216E-002
 4.2001000E+002, 4.1519556E+002, 3.2033060E-002, 1.1730597E-002
 4.2501000E+002, 4.1537161E+002, 3.2296937E-002, 1.1584647E-002
 4.3001000E+002, 4.1554395E+002, 3.2346293E-002, 1.1437475E-002
 4.3501000E+002, 4.1594760E+002, 3.2566115E-002, 1.1290158E-002
 4.4001000E+002, 4.1617270E+002, 3.2516759E-002, 1.1142035E-002
 4.4501000E+002, 4.1699783E+002, 3.2635365E-002, 1.0994094E-002
 4.5001000E+002, 4.1754547E+002, 3.2410186E-002, 1.0846091E-002
 4.5501000E+002, 4.1923380E+002, 3.2247745E-002, 1.0699182E-002
 4.6001000E+002, 4.2101645E+002, 3.1564754E-002, 1.0553871E-002
 4.6501000E+002, 4.2492880E+002, 3.0701252E-002, 1.0412350E-002
 4.7001000E+002, 4.3100470E+002, 2.8672876E-002, 1.0276591E-002
 4.7501000E+002, 4.4187326E+002, 2.5719529E-002, 1.0152810E-002
 4.8001000E+002, 4.6628116E+002, 1.9447273E-002, 1.0047830E-002
 4.8501000E+002, 5.9986377E+002, 1.4347940E-003, 1.0000526E-002
 4.9001000E+002, 6.3446539E+002, 0.0000000E+000, 9.9999998E-003
 4.9501000E+002, 6.4347876E+002, 0.0000000E+000, 9.9999998E-003
 5.0001000E+002, 6.4892920E+002, 0.0000000E+000, 9.9999998E-003
 5.0501000E+002, 6.5220886E+002, 0.0000000E+000, 9.9999998E-003
 5.1001000E+002, 6.5411237E+002, 0.0000000E+000, 9.9999998E-003
 5.1501000E+002, 6.5519104E+002, 0.0000000E+000, 9.9999998E-003
 5.2001000E+002, 6.5579425E+002, 0.0000000E+000, 9.9999998E-003
 5.2501000E+002, 6.5612897E+002, 0.0000000E+000, 9.9999998E-003
 5.3001000E+002, 6.5631396E+002, 0.0000000E+000, 9.9999998E-003
 5.3501000E+002, 6.5641595E+002, 0.0000000E+000, 9.9999998E-003
 5.4001000E+002, 6.5647211E+002, 0.0000000E+000, 9.9999998E-003
 5.4501000E+002, 6.5650305E+002, 0.0000000E+000, 9.9999998E-003
 5.5001000E+002, 6.5652002E+002, 0.0000000E+000, 9.9999998E-003
 5.5501000E+002, 6.5652942E+002, 0.0000000E+000, 9.9999998E-003
 5.6001000E+002, 6.5653455E+002, 0.0000000E+000, 9.9999998E-003
 5.6501000E+002, 6.5653735E+002, 0.0000000E+000, 9.9999998E-003
 5.7001000E+002, 6.5653894E+002, 0.0000000E+000, 9.9999998E-003
 5.7501000E+002, 6.5653986E+002, 0.0000000E+000, 9.9999998E-003
 5.8001000E+002, 6.5654034E+002, 0.0000000E+000, 9.9999998E-003
 5.8501000E+002, 6.5654065E+002, 0.0000000E+000, 9.9999998E-003
 5.9001000E+002, 6.5654077E+002, 0.0000000E+000, 9.9999998E-003
 5.9501000E+002, 6.5654077E+002, 0.0000000E+000, 9.9999998E-003
 6.0001000E+002, 6.5654083E+002, 0.0000000E+000, 9.9999998E-003
 6.0501000E+002, 6.5654089E+002, 0.0000000E+000, 9.9999998E-003
 6.1001000E+002, 6.5654089E+002, 0.0000000E+000, 9.9999998E-003
 6.1501000E+002, 6.5654089E+002, 0.0000000E+000, 9.9999998E-003
 6.2001000E+002, 6.5654089E+002, 0.0000000E+000, 9.9999998E-003
 6.2501000E+002, 6.5654095E+002, 0.0000000E+000, 9.9999998E-003
 6.3001000E+002, 6.5654083E+002, 0.0000000E+000, 9.9999998E-003
 6.3501000E+002, 6.5654083E+002, 0.0000000E+000, 9.9999998E-003
 6.4001000E+002, 6.5654089E+002, 0.0000000E+000, 9.9999998E-003
 6.4501000E+002, 6.5654089E+002, 0.0000000E+000, 9.9999998E-003
 6.5001000E+002, 6.5654089E+002, 0.0000000E+000, 9.9999998E-003
 6.5501000E+002, 6.5654089E+002, 0.0000000E+000, 9.9999998E-003
 6.6001000E+002, 6.5654089E+002, 0.0000000E+000, 9.9999998E-003
 6.6501000E+002, 6.5654089E+002, 0.0000000E+000, 9.9999998E-003
 6.7001000E+002, 6.5654083E+002, 0.0000000E+000, 9.9999998E-003
 6.7501000E+002, 6.5654083E+002, 0.0000000E+000, 9.9999998E-003
 6.8001000E+002, 6.5654083E+002, 0.0000000E+000, 9.9999998E-003
 6.8501000E+002, 6.5654083E+002, 0.0000000E+000, 9.9999998E-003
 6.9001000E+002, 6.5654083E+002, 0.0000000E+000, 9.9999998E-003
 6.9501000E+002, 6.5654089E+002, 0.0000000E+000, 9.9999998E-003
 7.0001000E+002, 6.5654089E+002, 0.0000000E+000, 9.9999998E-003
 7.0501000E+002, 6.5654102E+002, 0.0000000E+000, 9.9999998E-003
 7.1001000E+002, 6.5654089E+002, 0.0000000E+000, 9.9999998E-003
 7.1501000E+002, 6.5654089E+002, 0.0000000E+000, 9.9999998E-003
 7.2001000E+002, 6.5654089E+002, 0.0000000E+000, 9.9999998E-003
 7.2501000E+002, 6.5654089E+002, 0.0000000E+000, 9.9999998E-003
 7.3001000E+002, 6.5654089E+002, 0.0000000E+000, 9.9999998E-003
 7.3501000E+002, 6.5654089E+002, 0.0000000E+000, 9.9999998E-003
 7.4001000E+002, 6.5654089E+002, 0.0000000E+000, 9.9999998E-003
 7.4501000E+002, 6.5654083E+002, 0.0000000E+000, 9.9999998E-003
 7.5001000E+002, 6.5654083E+002, 0.0000000E+000, 9.9999998E-003
 7.5501000E+002, 6.5654083E+002, 0.0000000E+000, 9.9999998E-003
 7.6001000E+002, 6.5654089E+002, 0.0000000E+000, 9.9999998E-003
 7.6501000E+002, 6.5654083E+002, 0.0000000E+000, 9.9999998E-003
 7.7001000E+002, 6.5654083E+002, 0.0000000E+000, 9.9999998E-003
 7.7501000E+002, 6.5654083E+002, 0.0000000E+000, 9.9999998E-003
 7.8001000E+002, 6.5654089E+002, 0.0000000E+000, 9.9999998E-003
 7.8501000E+002, 6.5654089E+002, 0.0000000E+000, 9.9999998E-003
 7.9001000E+002, 6.5654089E+002, 0.0000000E+000, 9.9999998E-003
 7.9501000E+002, 6.5654095E+002, 0.0000000E+000, 9.9999998E-003
 8.0001000E+002, 6.5654095E+002, 0.0000000E+000, 9.9999998E-003
