s,kW,C,kg/s,m,kW/m2
Time,"HRR","temp","MLR","thick","flux"
 0.000E+000, 0.000E+000, 2.000E+001, 0.000E+000, 1.900E-002,-4.813E-011
 2.012E+000, 0.000E+000, 4.328E+001, 9.539E-021, 1.900E-002, 5.002E+001
 4.003E+000, 0.000E+000, 7.535E+001, 3.790E-018, 1.900E-002, 5.013E+001
 6.009E+000, 0.000E+000, 9.855E+001, 2.414E-016, 1.900E-002, 5.022E+001
 8.001E+000, 0.000E+000, 1.175E+002, 5.589E-015, 1.900E-002, 5.027E+001
 1.002E+001, 0.000E+000, 1.340E+002, 7.091E-014, 1.900E-002, 5.031E+001
 1.201E+001, 0.000E+000, 1.486E+002, 5.849E-013, 1.900E-002, 5.036E+001
 1.401E+001, 3.329E-008, 1.617E+002, 3.521E-012, 1.900E-002, 5.040E+001
 1.601E+001, 2.823E-007, 1.739E+002, 1.682E-011, 1.900E-002, 5.048E+001
 1.801E+001, 1.211E-006, 1.853E+002, 6.713E-011, 1.900E-002, 5.054E+001
 2.001E+001, 4.305E-006, 1.960E+002, 2.314E-010, 1.900E-002, 5.063E+001
 2.200E+001, 1.329E-005, 2.059E+002, 7.050E-010, 1.900E-002, 5.059E+001
 2.400E+001, 3.694E-005, 2.152E+002, 1.948E-009, 1.900E-002, 5.061E+001
 2.600E+001, 9.466E-005, 2.244E+002, 4.973E-009, 1.900E-002, 5.076E+001
 2.800E+001, 2.255E-004, 2.329E+002, 1.182E-008, 1.900E-002, 5.070E+001
 3.000E+001, 5.058E-004, 2.412E+002, 2.647E-008, 1.900E-002, 5.082E+001
 3.201E+001, 1.080E-003, 2.493E+002, 5.644E-008, 1.900E-002, 5.083E+001
 3.401E+001, 2.203E-003, 2.570E+002, 1.150E-007, 1.900E-002, 5.085E+001
 3.600E+001, 4.308E-003, 2.647E+002, 2.247E-007, 1.900E-002, 5.096E+001
 3.800E+001, 8.143E-003, 2.720E+002, 4.242E-007, 1.900E-002, 5.095E+001
 4.001E+001, 1.494E-002, 2.793E+002, 7.778E-007, 1.900E-002, 5.105E+001
 4.201E+001, 2.663E-002, 2.862E+002, 1.385E-006, 1.900E-002, 5.102E+001
 4.400E+001, 4.624E-002, 2.932E+002, 2.404E-006, 1.900E-002, 5.115E+001
 4.600E+001, 7.842E-002, 2.999E+002, 4.074E-006, 1.900E-002, 5.116E+001
 4.801E+001, 1.304E-001, 3.068E+002, 6.776E-006, 1.900E-002, 5.132E+001
 5.000E+001, 2.128E-001, 3.135E+002, 1.105E-005, 1.900E-002, 5.138E+001
 5.200E+001, 3.410E-001, 3.201E+002, 1.769E-005, 1.900E-002, 5.150E+001
 5.400E+001, 5.371E-001, 3.264E+002, 2.784E-005, 1.900E-002, 5.153E+001
 5.600E+001, 8.333E-001, 3.327E+002, 4.321E-005, 1.900E-002, 5.173E+001
 5.800E+001, 1.278E+000, 3.393E+002, 6.625E-005, 1.900E-002, 5.204E+001
 6.001E+001, 1.941E+000, 3.458E+002, 1.005E-004, 1.900E-002, 5.227E+001
 6.201E+001, 2.918E+000, 3.521E+002, 1.512E-004, 1.900E-002, 5.275E+001
 6.401E+001, 4.362E+000, 3.590E+002, 2.259E-004, 1.900E-002, 5.343E+001
 6.600E+001, 6.506E+000, 3.668E+002, 3.369E-004, 1.900E-002, 5.454E+001
 6.801E+001, 9.723E+000, 3.752E+002, 5.035E-004, 1.900E-002, 5.692E+001
 7.000E+001, 1.472E+001, 3.851E+002, 7.625E-004, 1.900E-002, 6.079E+001
 7.200E+001, 2.316E+001, 3.985E+002, 1.210E-003, 1.900E-002, 7.056E+001
 7.400E+001, 3.928E+001, 4.174E+002, 2.058E-003, 1.900E-002, 8.109E+001
 7.600E+001, 6.783E+001, 4.308E+002, 3.579E-003, 1.900E-002, 8.100E+001
 7.800E+001, 1.170E+002, 4.397E+002, 6.182E-003, 1.900E-002, 8.163E+001
 8.000E+001, 1.888E+002, 4.488E+002, 1.020E-002, 1.900E-002, 8.391E+001
 8.200E+001, 2.965E+002, 4.551E+002, 1.572E-002, 1.900E-002, 8.195E+001
 8.400E+001, 4.188E+002, 4.631E+002, 2.237E-002, 1.900E-002, 8.253E+001
 8.600E+001, 5.577E+002, 4.735E+002, 2.926E-002, 1.900E-002, 8.188E+001
 8.800E+001, 7.009E+002, 4.962E+002, 3.700E-002, 1.900E-002, 8.557E+001
 9.000E+001, 8.030E+002, 5.427E+002, 4.156E-002, 1.900E-002, 8.790E+001
 9.200E+001, 8.254E+002, 5.639E+002, 4.227E-002, 1.900E-002, 8.878E+001
 9.400E+001, 8.157E+002, 5.695E+002, 4.187E-002, 1.900E-002, 8.821E+001
 9.600E+001, 7.912E+002, 5.829E+002, 4.071E-002, 1.900E-002, 8.828E+001
 9.800E+001, 7.719E+002, 5.903E+002, 3.938E-002, 1.900E-002, 8.569E+001
 1.000E+002, 7.179E+002, 6.119E+002, 3.649E-002, 1.900E-002, 8.743E+001
 1.020E+002, 6.566E+002, 6.392E+002, 3.343E-002, 1.901E-002, 9.031E+001
 1.040E+002, 6.285E+002, 6.375E+002, 3.196E-002, 1.901E-002, 8.724E+001
 1.060E+002, 6.367E+002, 6.461E+002, 3.262E-002, 1.901E-002, 8.854E+001
 1.080E+002, 6.398E+002, 6.415E+002, 3.322E-002, 1.901E-002, 8.402E+001
 1.100E+002, 6.739E+002, 6.460E+002, 3.422E-002, 1.901E-002, 8.576E+001
 1.120E+002, 6.538E+002, 6.570E+002, 3.407E-002, 1.901E-002, 8.716E+001
 1.140E+002, 6.547E+002, 6.584E+002, 3.328E-002, 1.901E-002, 8.487E+001
 1.160E+002, 6.271E+002, 6.714E+002, 3.178E-002, 1.901E-002, 8.722E+001
 1.180E+002, 6.106E+002, 6.770E+002, 3.123E-002, 1.901E-002, 8.591E+001
 1.200E+002, 6.179E+002, 6.836E+002, 3.213E-002, 1.901E-002, 8.710E+001
 1.220E+002, 6.461E+002, 6.858E+002, 3.349E-002, 1.901E-002, 8.669E+001
 1.240E+002, 6.745E+002, 6.864E+002, 3.453E-002, 1.901E-002, 8.604E+001
 1.260E+002, 6.837E+002, 6.923E+002, 3.503E-002, 1.901E-002, 8.698E+001
 1.280E+002, 6.679E+002, 6.929E+002, 3.446E-002, 1.901E-002, 8.640E+001
 1.300E+002, 6.563E+002, 7.012E+002, 3.364E-002, 1.901E-002, 8.771E+001
 1.320E+002, 6.459E+002, 7.064E+002, 3.293E-002, 1.901E-002, 8.929E+001
 1.340E+002, 6.436E+002, 7.141E+002, 3.295E-002, 1.901E-002, 8.822E+001
 1.360E+002, 6.455E+002, 7.120E+002, 3.327E-002, 1.901E-002, 8.680E+001
 1.380E+002, 6.552E+002, 7.158E+002, 3.364E-002, 1.901E-002, 8.815E+001
 1.400E+002, 6.589E+002, 7.209E+002, 3.386E-002, 1.901E-002, 8.928E+001
 1.420E+002, 6.548E+002, 7.234E+002, 3.370E-002, 1.901E-002, 8.898E+001
 1.440E+002, 6.469E+002, 7.183E+002, 3.287E-002, 1.901E-002, 8.592E+001
 1.460E+002, 6.236E+002, 7.231E+002, 3.175E-002, 1.901E-002, 8.745E+001
 1.480E+002, 5.959E+002, 7.252E+002, 3.077E-002, 1.901E-002, 8.773E+001
 1.500E+002, 5.930E+002, 7.255E+002, 3.028E-002, 1.902E-002, 8.546E+001
 1.520E+002, 5.909E+002, 7.286E+002, 3.020E-002, 1.902E-002, 8.731E+001
 1.540E+002, 5.891E+002, 7.346E+002, 3.018E-002, 1.902E-002, 8.925E+001
 1.560E+002, 5.815E+002, 7.394E+002, 3.014E-002, 1.902E-002, 8.917E+001
 1.580E+002, 5.893E+002, 7.430E+002, 2.972E-002, 1.902E-002, 9.163E+001
 1.600E+002, 5.669E+002, 7.477E+002, 2.907E-002, 1.902E-002, 9.075E+001
 1.620E+002, 5.506E+002, 7.409E+002, 2.818E-002, 1.902E-002, 8.755E+001
 1.640E+002, 5.320E+002, 7.425E+002, 2.724E-002, 1.902E-002, 8.833E+001
 1.660E+002, 5.133E+002, 7.495E+002, 2.663E-002, 1.902E-002, 8.950E+001
 1.680E+002, 5.201E+002, 7.460E+002, 2.632E-002, 1.902E-002, 8.893E+001
 1.700E+002, 5.074E+002, 7.467E+002, 2.606E-002, 1.902E-002, 8.753E+001
 1.720E+002, 5.021E+002, 7.493E+002, 2.575E-002, 1.902E-002, 8.882E+001
 1.740E+002, 4.939E+002, 7.481E+002, 2.533E-002, 1.902E-002, 8.721E+001
 1.760E+002, 4.848E+002, 7.493E+002, 2.479E-002, 1.902E-002, 8.741E+001
 1.780E+002, 4.737E+002, 7.457E+002, 2.412E-002, 1.902E-002, 8.596E+001
 1.800E+002, 4.555E+002, 7.540E+002, 2.336E-002, 1.902E-002, 9.000E+001
 1.820E+002, 4.498E+002, 7.578E+002, 2.278E-002, 1.902E-002, 9.068E+001
 1.840E+002, 4.340E+002, 7.602E+002, 2.240E-002, 1.902E-002, 9.031E+001
 1.860E+002, 4.269E+002, 7.580E+002, 2.208E-002, 1.902E-002, 8.708E+001
 1.880E+002, 4.318E+002, 7.570E+002, 2.172E-002, 1.902E-002, 8.798E+001
 1.900E+002, 4.145E+002, 7.611E+002, 2.134E-002, 1.902E-002, 8.974E+001
 1.920E+002, 4.076E+002, 7.621E+002, 2.090E-002, 1.902E-002, 8.909E+001
 1.940E+002, 3.988E+002, 7.620E+002, 2.041E-002, 1.902E-002, 8.905E+001
 1.960E+002, 3.872E+002, 7.723E+002, 1.990E-002, 1.902E-002, 9.285E+001
 1.980E+002, 3.817E+002, 7.636E+002, 1.942E-002, 1.902E-002, 8.720E+001
 2.000E+002, 3.723E+002, 7.600E+002, 1.898E-002, 1.903E-002, 8.666E+001
 2.020E+002, 3.577E+002, 7.639E+002, 1.855E-002, 1.903E-002, 8.771E+001
 2.040E+002, 3.566E+002, 7.638E+002, 1.810E-002, 1.903E-002, 8.819E+001
 2.060E+002, 3.446E+002, 7.607E+002, 1.761E-002, 1.903E-002, 8.603E+001
 2.080E+002, 3.316E+002, 7.605E+002, 1.709E-002, 1.903E-002, 8.502E+001
 2.100E+002, 3.252E+002, 7.661E+002, 1.655E-002, 1.903E-002, 8.882E+001
 2.120E+002, 3.127E+002, 7.701E+002, 1.602E-002, 1.903E-002, 8.918E+001
 2.140E+002, 3.054E+002, 7.694E+002, 1.554E-002, 1.903E-002, 8.898E+001
 2.160E+002, 2.939E+002, 7.722E+002, 1.506E-002, 1.903E-002, 8.897E+001
 2.180E+002, 2.833E+002, 7.758E+002, 1.451E-002, 1.903E-002, 8.992E+001
 2.200E+002, 2.705E+002, 7.773E+002, 1.382E-002, 1.903E-002, 9.019E+001
 2.220E+002, 2.557E+002, 7.793E+002, 1.300E-002, 1.903E-002, 9.105E+001
 2.240E+002, 2.368E+002, 7.790E+002, 1.209E-002, 1.903E-002, 8.996E+001
 2.260E+002, 2.167E+002, 7.776E+002, 1.104E-002, 1.903E-002, 8.816E+001
 2.280E+002, 1.915E+002, 7.747E+002, 9.725E-003, 1.903E-002, 8.681E+001
 2.300E+002, 1.649E+002, 7.761E+002, 8.400E-003, 1.903E-002, 8.687E+001
 2.320E+002, 1.477E+002, 7.580E+002, 7.537E-003, 1.904E-002, 7.874E+001
 2.340E+002, 1.349E+002, 7.485E+002, 6.915E-003, 1.904E-002, 7.561E+001
 2.360E+002, 1.236E+002, 7.438E+002, 6.299E-003, 1.904E-002, 7.420E+001
 2.380E+002, 1.124E+002, 7.324E+002, 5.756E-003, 1.904E-002, 6.972E+001
 2.400E+002, 1.037E+002, 7.236E+002, 5.315E-003, 1.904E-002, 6.786E+001
 2.420E+002, 9.670E+001, 7.183E+002, 4.948E-003, 1.904E-002, 6.712E+001
 2.440E+002, 9.071E+001, 7.150E+002, 4.650E-003, 1.904E-002, 6.650E+001
 2.460E+002, 8.569E+001, 7.026E+002, 4.387E-003, 1.904E-002, 6.371E+001
 2.480E+002, 8.059E+001, 6.997E+002, 4.128E-003, 1.904E-002, 6.307E+001
 2.500E+002, 7.562E+001, 6.938E+002, 3.872E-003, 1.904E-002, 6.217E+001
 2.520E+002, 7.095E+001, 6.955E+002, 3.634E-003, 1.904E-002, 6.300E+001
 2.540E+002, 6.695E+001, 6.892E+002, 3.430E-003, 1.904E-002, 6.104E+001
 2.560E+002, 6.345E+001, 6.817E+002, 3.252E-003, 1.904E-002, 6.019E+001
 2.580E+002, 6.020E+001, 6.713E+002, 3.081E-003, 1.904E-002, 5.820E+001
 2.600E+002, 5.677E+001, 6.796E+002, 2.909E-003, 1.904E-002, 6.056E+001
 2.620E+002, 5.331E+001, 6.793E+002, 2.729E-003, 1.904E-002, 6.000E+001
 2.640E+002, 4.957E+001, 6.777E+002, 2.540E-003, 1.904E-002, 5.974E+001
 2.660E+002, 4.575E+001, 6.762E+002, 2.341E-003, 1.904E-002, 5.942E+001
 2.680E+002, 4.183E+001, 6.702E+002, 2.140E-003, 1.904E-002, 5.805E+001
 2.700E+002, 3.804E+001, 6.727E+002, 1.947E-003, 1.904E-002, 5.857E+001
 2.720E+002, 3.450E+001, 6.654E+002, 1.765E-003, 1.904E-002, 5.686E+001
 2.740E+002, 3.111E+001, 6.633E+002, 1.592E-003, 1.904E-002, 5.668E+001
 2.760E+002, 2.790E+001, 6.565E+002, 1.427E-003, 1.904E-002, 5.554E+001
 2.780E+002, 2.493E+001, 6.551E+002, 1.275E-003, 1.904E-002, 5.512E+001
 2.800E+002, 2.222E+001, 6.453E+002, 1.136E-003, 1.904E-002, 5.360E+001
 2.820E+002, 1.982E+001, 6.473E+002, 1.013E-003, 1.904E-002, 5.438E+001
 2.840E+002, 1.765E+001, 6.450E+002, 9.029E-004, 1.904E-002, 5.391E+001
 2.860E+002, 1.567E+001, 6.432E+002, 8.010E-004, 1.904E-002, 5.370E+001
 2.880E+002, 1.379E+001, 6.425E+002, 7.054E-004, 1.904E-002, 5.354E+001
 2.900E+002, 1.208E+001, 6.375E+002, 6.179E-004, 1.904E-002, 5.284E+001
 2.920E+002, 1.056E+001, 6.380E+002, 5.396E-004, 1.904E-002, 5.314E+001
 2.940E+002, 9.215E+000, 6.373E+002, 4.711E-004, 1.904E-002, 5.304E+001
 2.960E+002, 8.017E+000, 6.361E+002, 4.097E-004, 1.904E-002, 5.265E+001
 2.980E+002, 6.912E+000, 6.326E+002, 3.531E-004, 1.904E-002, 5.228E+001
 3.000E+002, 5.889E+000, 6.330E+002, 3.010E-004, 1.904E-002, 5.253E+001
