s,C,kg/m2/s,m
Time,"temp","MLR","thick"
 0.0000000E+000, 2.0000000E+001, 0.0000000E+000, 3.2234300E-002
 5.0100000E+000, 6.9967896E+001, 0.0000000E+000, 3.2234300E-002
 1.0010000E+001, 1.2929807E+002, 0.0000000E+000, 3.2234300E-002
 1.5010000E+001, 1.6897902E+002, 0.0000000E+000, 3.2234300E-002
 2.0000000E+001, 2.0047708E+002, 0.0000000E+000, 3.2234300E-002
 2.5000000E+001, 2.2700063E+002, 0.0000000E+000, 3.2234300E-002
 3.0000000E+001, 2.5005103E+002, 0.0000000E+000, 3.2234300E-002
 3.5000000E+001, 2.6467087E+002, 4.1647605E-010, 3.2234300E-002
 4.0000000E+001, 2.8383215E+002, 5.2149747E-009, 3.2234300E-002
 4.5010000E+001, 2.9770389E+002, 2.2337838E-008, 3.2234300E-002
 5.0010000E+001, 3.1477377E+002, 1.1882078E-007, 3.2234300E-002
 5.5010000E+001, 3.2724866E+002, 3.6672242E-007, 3.2234300E-002
 6.0010000E+001, 3.4052737E+002, 1.2396835E-006, 3.2234296E-002
 6.5010000E+001, 3.5273495E+002, 3.4532247E-006, 3.2234285E-002
 7.0010000E+001, 3.6291776E+002, 8.2003817E-006, 3.2234263E-002
 7.5000000E+001, 3.7396414E+002, 2.0024348E-005, 3.2234203E-002
 8.0000000E+001, 3.8316672E+002, 4.0800984E-005, 3.2234076E-002
 8.5000000E+001, 3.9202664E+002, 8.1102058E-005, 3.2233819E-002
 9.0000000E+001, 4.0083398E+002, 1.5603924E-004, 3.2233316E-002
 9.5000000E+001, 4.0819507E+002, 2.6661329E-004, 3.2232415E-002
 1.0000000E+002, 4.1539789E+002, 4.4836861E-004, 3.2230891E-002
 1.0500000E+002, 4.2203409E+002, 7.1270327E-004, 3.2228392E-002
 1.1000000E+002, 4.2750388E+002, 1.0408541E-003, 3.2224610E-002
 1.1500000E+002, 4.3259915E+002, 1.4763033E-003, 3.2219175E-002
 1.2000000E+002, 4.3690717E+002, 1.9685766E-003, 3.2211684E-002
 1.2500000E+002, 4.4037534E+002, 2.4803926E-003, 3.2202031E-002
 1.3000000E+002, 4.4348798E+002, 3.0450679E-003, 3.2190025E-002
 1.3500000E+002, 4.4600281E+002, 3.5769881E-003, 3.2175604E-002
 1.4000000E+002, 4.4811542E+002, 4.0936922E-003, 3.2158934E-002
 1.4500000E+002, 4.5002258E+002, 4.6125497E-003, 3.2139990E-002
 1.5000000E+002, 4.5159143E+002, 5.0734836E-003, 3.2118920E-002
 1.5500000E+002, 4.5301926E+002, 5.5326857E-003, 3.2095864E-002
 1.6001000E+002, 4.5429678E+002, 5.9644729E-003, 3.2070823E-002
 1.6501000E+002, 4.5541803E+002, 6.3673081E-003, 3.2043986E-002
 1.7001000E+002, 4.5646634E+002, 6.7652408E-003, 3.2015424E-002
 1.7501000E+002, 4.5739682E+002, 7.1331849E-003, 3.1985205E-002
 1.8001000E+002, 4.5826535E+002, 7.4969409E-003, 3.1953394E-002
 1.8501000E+002, 4.5747360E+002, 7.7251135E-003, 3.1920150E-002
 1.9001000E+002, 4.5617758E+002, 8.0126636E-003, 3.1886134E-002
 1.9501000E+002, 4.5726703E+002, 8.4425155E-003, 3.1850327E-002
 2.0001000E+002, 4.5821188E+002, 8.8109178E-003, 3.1812802E-002
 2.0501000E+002, 4.5906778E+002, 9.1463057E-003, 3.1773757E-002
 2.1001000E+002, 4.5985721E+002, 9.4611160E-003, 3.1733297E-002
 2.1501000E+002, 4.6058743E+002, 9.7598294E-003, 3.1691507E-002
 2.2001000E+002, 4.6126279E+002, 1.0044837E-002, 3.1648446E-002
 2.2501000E+002, 4.6188580E+002, 1.0317344E-002, 3.1604175E-002
 2.3001000E+002, 4.5944379E+002, 1.0373466E-002, 3.1559177E-002
 2.3501000E+002, 4.5988419E+002, 1.0738824E-002, 3.1513330E-002
 2.4001000E+002, 4.6069861E+002, 1.1056153E-002, 3.1465925E-002
 2.4501000E+002, 4.6143375E+002, 1.1337583E-002, 3.1417236E-002
 2.5001000E+002, 4.6212192E+002, 1.1613056E-002, 3.1367343E-002
 2.5501000E+002, 4.6277164E+002, 1.1891911E-002, 3.1316243E-002
 2.6001000E+002, 4.6338263E+002, 1.2175041E-002, 3.1263925E-002
 2.6501000E+002, 4.6091730E+002, 1.2245876E-002, 3.1210886E-002
 2.7001000E+002, 4.6165201E+002, 1.2687262E-002, 3.1156670E-002
 2.7501000E+002, 4.6244794E+002, 1.3046054E-002, 3.1100705E-002
 2.8001000E+002, 4.6316757E+002, 1.3365977E-002, 3.1043278E-002
 2.8501000E+002, 4.6382843E+002, 1.3667171E-002, 3.0984504E-002
 2.9001000E+002, 4.6443530E+002, 1.3956925E-002, 3.0924447E-002
 2.9501000E+002, 4.6203745E+002, 1.4025339E-002, 3.0863706E-002
 3.0001000E+002, 4.6287109E+002, 1.4475555E-002, 3.0801686E-002
 3.0501000E+002, 4.6361462E+002, 1.4812552E-002, 3.0737992E-002
 3.1001000E+002, 4.6428525E+002, 1.5108935E-002, 3.0672936E-002
 3.1501000E+002, 4.6489725E+002, 1.5385643E-002, 3.0606637E-002
 3.2001000E+002, 4.6346640E+002, 1.5476848E-002, 3.0539466E-002
 3.2501000E+002, 4.6339603E+002, 1.5847087E-002, 3.0471487E-002
 3.3001000E+002, 4.6413196E+002, 1.6179256E-002, 3.0401831E-002
 3.3501000E+002, 4.6478790E+002, 1.6455485E-002, 3.0330872E-002
 3.4001000E+002, 4.6538394E+002, 1.6706616E-002, 3.0258773E-002
 3.4501000E+002, 4.6363354E+002, 1.6755417E-002, 3.0186040E-002
 3.5001000E+002, 4.6401785E+002, 1.7137038E-002, 3.0112378E-002
 3.5501000E+002, 4.6471109E+002, 1.7417740E-002, 3.0037230E-002
 3.6001000E+002, 4.6533252E+002, 1.7647440E-002, 2.9960988E-002
 3.6501000E+002, 4.6502271E+002, 1.7748039E-002, 2.9883888E-002
 3.7001000E+002, 4.6394852E+002, 1.7936205E-002, 2.9806528E-002
 3.7501000E+002, 4.6468213E+002, 1.8227095E-002, 2.9727854E-002
 3.8001000E+002, 4.6531839E+002, 1.8424597E-002, 2.9648157E-002
 3.8501000E+002, 4.6585379E+002, 1.8580258E-002, 2.9567689E-002
 3.9001000E+002, 4.6391110E+002, 1.8542245E-002, 2.9487124E-002
 3.9501000E+002, 4.6469595E+002, 1.8849632E-002, 2.9405730E-002
 4.0001000E+002, 4.6534042E+002, 1.9009735E-002, 2.9323403E-002
 4.0501000E+002, 4.6592114E+002, 1.9126244E-002, 2.9240487E-002
 4.1001000E+002, 4.6431110E+002, 1.9045610E-002, 2.9157540E-002
 4.1501000E+002, 4.6474551E+002, 1.9292213E-002, 2.9074185E-002
 4.2001000E+002, 4.6539441E+002, 1.9418906E-002, 2.8990002E-002
 4.2501000E+002, 4.6597818E+002, 1.9499646E-002, 2.8905386E-002
 4.3001000E+002, 4.6453976E+002, 1.9392973E-002, 2.8820841E-002
 4.3501000E+002, 4.6482764E+002, 1.9598873E-002, 2.8736101E-002
 4.4001000E+002, 4.6547964E+002, 1.9701367E-002, 2.8650638E-002
 4.4501000E+002, 4.6606689E+002, 1.9758575E-002, 2.8564846E-002
 4.5001000E+002, 4.6464822E+002, 1.9634023E-002, 2.8479217E-002
 4.5501000E+002, 4.6494724E+002, 1.9822096E-002, 2.8393464E-002
 4.6001000E+002, 4.6560300E+002, 1.9908175E-002, 2.8307069E-002
 4.6501000E+002, 4.6619565E+002, 1.9950524E-002, 2.8220410E-002
 4.7001000E+002, 4.6469913E+002, 1.9814277E-002, 2.8134000E-002
 4.7501000E+002, 4.6511426E+002, 1.9998994E-002, 2.8047444E-002
 4.8001000E+002, 4.6577670E+002, 2.0072319E-002, 2.7960308E-002
 4.8501000E+002, 4.6637833E+002, 2.0102762E-002, 2.7872961E-002
 4.9001000E+002, 4.6473624E+002, 1.9959062E-002, 2.7785951E-002
 4.9501000E+002, 4.6534827E+002, 2.0147718E-002, 2.7698709E-002
 5.0001000E+002, 4.6602380E+002, 2.0207256E-002, 2.7610956E-002
 5.0501000E+002, 4.6657208E+002, 2.0214366E-002, 2.7523054E-002
 5.1001000E+002, 4.6487262E+002, 2.0088714E-002, 2.7435586E-002
 5.1501000E+002, 4.6568811E+002, 2.0272272E-002, 2.7347744E-002
 5.2001000E+002, 4.6638922E+002, 2.0311527E-002, 2.7259493E-002
 5.2501000E+002, 4.6665933E+002, 2.0263037E-002, 2.7171193E-002
 5.3001000E+002, 4.6536823E+002, 2.0224426E-002, 2.7083369E-002
 5.3501000E+002, 4.6621100E+002, 2.0361461E-002, 2.6995052E-002
 5.4001000E+002, 4.6696536E+002, 2.0370031E-002, 2.6906485E-002
 5.4501000E+002, 4.6697510E+002, 2.0277182E-002, 2.6818013E-002
 5.5001000E+002, 4.6616617E+002, 2.0311423E-002, 2.6729962E-002
 5.5501000E+002, 4.6710260E+002, 2.0380380E-002, 2.6641427E-002
 5.6001000E+002, 4.6798416E+002, 2.0348297E-002, 2.6552873E-002
 5.6501000E+002, 4.6786038E+002, 2.0227265E-002, 2.6464589E-002
 5.7001000E+002, 4.6766797E+002, 2.0277662E-002, 2.6376650E-002
 5.7501000E+002, 4.6886783E+002, 2.0249100E-002, 2.6288498E-002
 5.8001000E+002, 4.7010519E+002, 2.0159019E-002, 2.6200647E-002
 5.8501000E+002, 4.7030206E+002, 1.9988563E-002, 2.6113326E-002
 5.9001000E+002, 4.7114685E+002, 1.9924086E-002, 2.6026597E-002
 5.9501000E+002, 4.7322931E+002, 1.9756325E-002, 2.5940306E-002
 6.0001000E+002, 4.7567715E+002, 1.9522108E-002, 2.5854895E-002
 6.0501000E+002, 4.7813861E+002, 1.9085832E-002, 2.5770830E-002
 6.1001000E+002, 4.8213120E+002, 1.8671330E-002, 2.5688823E-002
 6.1501000E+002, 4.8823544E+002, 1.8084008E-002, 2.5608815E-002
 6.2001000E+002, 4.9778299E+002, 1.7051626E-002, 2.5532193E-002
 6.2501000E+002, 5.2196277E+002, 1.3831803E-002, 2.5462978E-002
 6.3001000E+002, 5.4041095E+002, 7.1933981E-005, 2.5434311E-002
 6.3501000E+002, 5.2008649E+002, 0.0000000E+000, 2.5434300E-002
 6.4001000E+002, 5.1575061E+002, 0.0000000E+000, 2.5434300E-002
 6.4501000E+002, 5.1441010E+002, 0.0000000E+000, 2.5434300E-002
 6.5001000E+002, 5.1418884E+002, 0.0000000E+000, 2.5434300E-002
 6.5501000E+002, 5.1448877E+002, 0.0000000E+000, 2.5434300E-002
 6.6001000E+002, 5.1504956E+002, 0.0000000E+000, 2.5434300E-002
 6.6501000E+002, 5.1574103E+002, 0.0000000E+000, 2.5434300E-002
 6.7001000E+002, 5.1649335E+002, 0.0000000E+000, 2.5434300E-002
 6.7501000E+002, 5.1726721E+002, 0.0000000E+000, 2.5434300E-002
 6.8001000E+002, 5.1804004E+002, 0.0000000E+000, 2.5434300E-002
 6.8501000E+002, 5.1879852E+002, 0.0000000E+000, 2.5434300E-002
 6.9001000E+002, 5.1953491E+002, 0.0000000E+000, 2.5434300E-002
 6.9501000E+002, 5.2024493E+002, 0.0000000E+000, 2.5434300E-002
 7.0001000E+002, 5.2092627E+002, 0.0000000E+000, 2.5434300E-002
 7.0501000E+002, 5.2157806E+002, 0.0000000E+000, 2.5434300E-002
 7.1001000E+002, 5.2220007E+002, 0.0000000E+000, 2.5434300E-002
 7.1501000E+002, 5.2279279E+002, 0.0000000E+000, 2.5434300E-002
 7.2001000E+002, 5.2335693E+002, 0.0000000E+000, 2.5434300E-002
 7.2501000E+002, 5.2389331E+002, 0.0000000E+000, 2.5434300E-002
 7.3001000E+002, 5.2440295E+002, 0.0000000E+000, 2.5434300E-002
 7.3501000E+002, 5.2488702E+002, 0.0000000E+000, 2.5434300E-002
 7.4001000E+002, 5.2534644E+002, 0.0000000E+000, 2.5434300E-002
 7.4501000E+002, 5.2578241E+002, 0.0000000E+000, 2.5434300E-002
 7.5001000E+002, 5.2619586E+002, 0.0000000E+000, 2.5434300E-002
