s,kW,C,kg/s,m,kW/m2
Time,"HRR","temp","MLR","thick","flux"
 0.000E+00, 0.000E+00, 2.000E+01, 0.000E+00, 1.900E-02,-4.758E-11
 2.012E+00, 0.000E+00, 4.283E+01, 8.945E-21, 1.900E-02, 5.002E+01
 4.003E+00, 0.000E+00, 7.520E+01, 3.981E-18, 1.900E-02, 5.013E+01
 6.004E+00, 0.000E+00, 9.905E+01, 2.828E-16, 1.900E-02, 5.023E+01
 8.007E+00, 0.000E+00, 1.188E+02, 7.280E-15, 1.900E-02, 5.027E+01
 1.001E+01, 0.000E+00, 1.358E+02, 9.943E-14, 1.900E-02, 5.031E+01
 1.201E+01, 2.495E-09, 1.510E+02, 8.736E-13, 1.900E-02, 5.036E+01
 1.401E+01, 8.660E-08, 1.648E+02, 5.575E-12, 1.900E-02, 5.042E+01
 1.601E+01, 5.143E-07, 1.775E+02, 2.778E-11, 1.900E-02, 5.049E+01
 1.801E+01, 2.090E-06, 1.893E+02, 1.144E-10, 1.900E-02, 5.055E+01
 2.001E+01, 7.550E-06, 2.004E+02, 4.041E-10, 1.900E-02, 5.064E+01
 2.201E+01, 2.370E-05, 2.108E+02, 1.255E-09, 1.900E-02, 5.064E+01
 2.401E+01, 6.662E-05, 2.203E+02, 3.510E-09, 1.900E-02, 5.062E+01
 2.601E+01, 1.709E-04, 2.298E+02, 8.976E-09, 1.900E-02, 5.081E+01
 2.801E+01, 4.057E-04, 2.385E+02, 2.127E-08, 1.900E-02, 5.073E+01
 3.001E+01, 9.031E-04, 2.469E+02, 4.724E-08, 1.900E-02, 5.088E+01
 3.201E+01, 1.895E-03, 2.550E+02, 9.904E-08, 1.900E-02, 5.086E+01
 3.400E+01, 3.783E-03, 2.625E+02, 1.973E-07, 1.900E-02, 5.085E+01
 3.600E+01, 7.224E-03, 2.702E+02, 3.766E-07, 1.900E-02, 5.103E+01
 3.801E+01, 1.332E-02, 2.773E+02, 6.935E-07, 1.900E-02, 5.097E+01
 4.000E+01, 2.368E-02, 2.842E+02, 1.232E-06, 1.900E-02, 5.102E+01
 4.200E+01, 4.080E-02, 2.910E+02, 2.122E-06, 1.900E-02, 5.110E+01
 4.400E+01, 6.849E-02, 2.974E+02, 3.557E-06, 1.900E-02, 5.111E+01
 4.600E+01, 1.121E-01, 3.039E+02, 5.821E-06, 1.900E-02, 5.118E+01
 4.800E+01, 1.797E-01, 3.103E+02, 9.321E-06, 1.900E-02, 5.133E+01
 5.001E+01, 2.821E-01, 3.165E+02, 1.463E-05, 1.900E-02, 5.136E+01
 5.201E+01, 4.352E-01, 3.227E+02, 2.256E-05, 1.900E-02, 5.150E+01
 5.400E+01, 6.602E-01, 3.288E+02, 3.420E-05, 1.900E-02, 5.168E+01
 5.601E+01, 9.856E-01, 3.347E+02, 5.105E-05, 1.900E-02, 5.180E+01
 5.801E+01, 1.454E+00, 3.408E+02, 7.530E-05, 1.900E-02, 5.218E+01
 6.000E+01, 2.124E+00, 3.468E+02, 1.100E-04, 1.900E-02, 5.249E+01
 6.201E+01, 3.078E+00, 3.530E+02, 1.593E-04, 1.900E-02, 5.296E+01
 6.401E+01, 4.431E+00, 3.592E+02, 2.293E-04, 1.900E-02, 5.350E+01
 6.600E+01, 6.352E+00, 3.657E+02, 3.286E-04, 1.900E-02, 5.424E+01
 6.800E+01, 9.122E+00, 3.736E+02, 4.719E-04, 1.900E-02, 5.703E+01
 7.000E+01, 1.317E+01, 3.836E+02, 6.817E-04, 1.899E-02, 6.286E+01
 7.200E+01, 1.950E+01, 3.972E+02, 1.011E-03, 1.899E-02, 7.139E+01
 7.400E+01, 3.008E+01, 4.129E+02, 1.569E-03, 1.898E-02, 7.906E+01
 7.600E+01, 4.892E+01, 4.257E+02, 2.563E-03, 1.896E-02, 8.313E+01
 7.800E+01, 8.001E+01, 4.325E+02, 4.220E-03, 1.893E-02, 8.200E+01
 8.000E+01, 1.265E+02, 4.359E+02, 6.687E-03, 1.889E-02, 8.180E+01
 8.200E+01, 1.894E+02, 4.388E+02, 1.008E-02, 1.885E-02, 8.209E+01
 8.400E+01, 2.740E+02, 4.390E+02, 1.432E-02, 1.880E-02, 8.392E+01
 8.600E+01, 3.675E+02, 4.395E+02, 1.919E-02, 1.875E-02, 8.480E+01
 8.800E+01, 4.764E+02, 4.428E+02, 2.513E-02, 1.869E-02, 8.682E+01
 9.000E+01, 5.758E+02, 4.438E+02, 3.065E-02, 1.863E-02, 8.559E+01
 9.200E+01, 6.838E+02, 4.445E+02, 3.552E-02, 1.856E-02, 8.466E+01
 9.400E+01, 7.344E+02, 4.441E+02, 3.844E-02, 1.849E-02, 8.512E+01
 9.600E+01, 7.852E+02, 4.420E+02, 4.116E-02, 1.842E-02, 8.417E+01
 9.800E+01, 8.324E+02, 4.438E+02, 4.330E-02, 1.835E-02, 8.472E+01
 1.000E+02, 8.978E+02, 4.454E+02, 4.564E-02, 1.828E-02, 8.570E+01
 1.020E+02, 8.957E+02, 4.463E+02, 4.702E-02, 1.820E-02, 8.407E+01
 1.040E+02, 9.335E+02, 4.432E+02, 4.899E-02, 1.813E-02, 8.437E+01
 1.060E+02, 9.979E+02, 4.452E+02, 5.148E-02, 1.805E-02, 8.635E+01
 1.080E+02, 1.013E+03, 4.471E+02, 5.370E-02, 1.797E-02, 8.607E+01
 1.100E+02, 1.065E+03, 4.479E+02, 5.491E-02, 1.788E-02, 8.669E+01
 1.120E+02, 1.102E+03, 4.457E+02, 5.714E-02, 1.779E-02, 8.699E+01
 1.140E+02, 1.114E+03, 4.478E+02, 5.883E-02, 1.769E-02, 8.730E+01
 1.160E+02, 1.162E+03, 4.497E+02, 6.135E-02, 1.760E-02, 8.800E+01
 1.180E+02, 1.160E+03, 4.472E+02, 6.165E-02, 1.750E-02, 8.661E+01
 1.200E+02, 1.188E+03, 4.480E+02, 6.260E-02, 1.739E-02, 8.607E+01
 1.220E+02, 1.241E+03, 4.498E+02, 6.596E-02, 1.729E-02, 8.661E+01
 1.240E+02, 1.286E+03, 4.480E+02, 6.816E-02, 1.717E-02, 8.698E+01
 1.260E+02, 1.337E+03, 4.494E+02, 7.100E-02, 1.706E-02, 8.686E+01
 1.280E+02, 1.397E+03, 4.508E+02, 7.431E-02, 1.694E-02, 8.873E+01
 1.300E+02, 1.453E+03, 4.498E+02, 7.836E-02, 1.681E-02, 8.928E+01
 1.320E+02, 1.510E+03, 4.515E+02, 8.151E-02, 1.667E-02, 8.860E+01
 1.340E+02, 1.572E+03, 4.509E+02, 8.612E-02, 1.653E-02, 8.974E+01
 1.360E+02, 1.578E+03, 4.512E+02, 8.766E-02, 1.639E-02, 8.629E+01
 1.380E+02, 1.581E+03, 4.505E+02, 8.967E-02, 1.624E-02, 8.668E+01
 1.400E+02, 1.672E+03, 4.519E+02, 9.365E-02, 1.610E-02, 8.792E+01
 1.420E+02, 1.783E+03, 4.526E+02, 9.683E-02, 1.595E-02, 8.903E+01
 1.440E+02, 1.795E+03, 4.541E+02, 1.002E-01, 1.579E-02, 8.996E+01
 1.460E+02, 1.796E+03, 4.556E+02, 1.018E-01, 1.563E-02, 8.975E+01
 1.480E+02, 1.804E+03, 4.586E+02, 1.026E-01, 1.548E-02, 9.016E+01
 1.500E+02, 1.775E+03, 4.638E+02, 1.017E-01, 1.533E-02, 8.952E+01
 1.520E+02, 1.733E+03, 4.723E+02, 9.732E-02, 1.519E-02, 8.856E+01
 1.540E+02, 1.705E+03, 4.907E+02, 9.102E-02, 1.507E-02, 9.111E+01
 1.560E+02, 1.411E+03, 6.586E+02, 6.982E-02, 1.500E-02, 8.872E+01
 1.580E+02, 9.276E+02, 7.630E+02, 4.440E-02, 1.500E-02, 9.245E+01
 1.600E+02, 6.104E+02, 7.702E+02, 3.052E-02, 1.500E-02, 9.046E+01
 1.620E+02, 5.024E+02, 7.794E+02, 2.493E-02, 1.500E-02, 9.166E+01
 1.640E+02, 3.082E+02, 7.848E+02, 1.536E-02, 1.500E-02, 9.097E+01
 1.660E+02, 2.284E+02, 7.409E+02, 1.160E-02, 1.500E-02, 7.813E+01
 1.680E+02, 1.710E+02, 7.037E+02, 8.668E-03, 1.500E-02, 6.785E+01
 1.700E+02, 1.394E+02, 6.687E+02, 7.122E-03, 1.500E-02, 6.205E+01
 1.720E+02, 1.223E+02, 6.489E+02, 6.245E-03, 1.500E-02, 5.946E+01
 1.740E+02, 7.804E+01, 6.362E+02, 3.909E-03, 1.500E-02, 5.711E+01
 1.760E+02, 4.603E+01, 6.104E+02, 2.371E-03, 1.500E-02, 5.372E+01
 1.780E+02, 4.224E+01, 6.063E+02, 2.169E-03, 1.500E-02, 5.367E+01
 1.800E+02, 3.904E+01, 6.009E+02, 2.003E-03, 1.500E-02, 5.330E+01
 1.820E+02, 3.360E+01, 6.014E+02, 1.725E-03, 1.500E-02, 5.334E+01
 1.840E+02, 2.394E+01, 6.037E+02, 1.212E-03, 1.500E-02, 5.334E+01
 1.860E+02, 4.246E+00, 5.956E+02, 1.962E-04, 1.500E-02, 5.207E+01
 1.880E+02, 2.750E-10, 5.985E+02, 0.000E+00, 1.500E-02, 5.220E+01
 1.900E+02, 0.000E+00, 5.913E+02, 0.000E+00, 1.500E-02, 5.173E+01
 1.920E+02, 0.000E+00, 6.016E+02, 0.000E+00, 1.500E-02, 5.246E+01
 1.940E+02, 0.000E+00, 6.032E+02, 0.000E+00, 1.500E-02, 5.255E+01
 1.960E+02, 0.000E+00, 6.029E+02, 0.000E+00, 1.500E-02, 5.252E+01
 1.980E+02, 0.000E+00, 6.009E+02, 0.000E+00, 1.500E-02, 5.239E+01
 2.000E+02, 0.000E+00, 6.025E+02, 0.000E+00, 1.500E-02, 5.250E+01
 2.020E+02, 0.000E+00, 6.005E+02, 0.000E+00, 1.500E-02, 5.240E+01
 2.040E+02, 0.000E+00, 6.021E+02, 0.000E+00, 1.500E-02, 5.245E+01
 2.060E+02, 0.000E+00, 6.039E+02, 0.000E+00, 1.500E-02, 5.260E+01
 2.080E+02, 0.000E+00, 6.001E+02, 0.000E+00, 1.500E-02, 5.236E+01
 2.100E+02, 0.000E+00, 6.018E+02, 0.000E+00, 1.500E-02, 5.246E+01
 2.120E+02, 0.000E+00, 6.062E+02, 0.000E+00, 1.500E-02, 5.273E+01
 2.140E+02, 0.000E+00, 5.966E+02, 0.000E+00, 1.500E-02, 5.208E+01
 2.160E+02, 0.000E+00, 5.997E+02, 0.000E+00, 1.500E-02, 5.233E+01
 2.180E+02, 0.000E+00, 5.956E+02, 0.000E+00, 1.500E-02, 5.207E+01
 2.200E+02, 0.000E+00, 6.033E+02, 0.000E+00, 1.500E-02, 5.258E+01
 2.220E+02, 0.000E+00, 5.978E+02, 0.000E+00, 1.500E-02, 5.219E+01
 2.240E+02, 0.000E+00, 6.016E+02, 0.000E+00, 1.500E-02, 5.246E+01
 2.260E+02, 0.000E+00, 6.030E+02, 0.000E+00, 1.500E-02, 5.254E+01
 2.280E+02, 0.000E+00, 5.970E+02, 0.000E+00, 1.500E-02, 5.212E+01
 2.300E+02, 0.000E+00, 6.053E+02, 0.000E+00, 1.500E-02, 5.272E+01
 2.320E+02, 0.000E+00, 5.980E+02, 0.000E+00, 1.500E-02, 5.222E+01
 2.340E+02, 0.000E+00, 6.021E+02, 0.000E+00, 1.500E-02, 5.247E+01
 2.360E+02, 0.000E+00, 6.024E+02, 0.000E+00, 1.500E-02, 5.248E+01
 2.380E+02, 0.000E+00, 6.050E+02, 0.000E+00, 1.500E-02, 5.268E+01
 2.400E+02, 0.000E+00, 6.051E+02, 0.000E+00, 1.500E-02, 5.267E+01
 2.420E+02, 0.000E+00, 6.056E+02, 0.000E+00, 1.500E-02, 5.268E+01
 2.440E+02, 0.000E+00, 6.046E+02, 0.000E+00, 1.500E-02, 5.259E+01
 2.460E+02, 0.000E+00, 6.033E+02, 0.000E+00, 1.500E-02, 5.249E+01
 2.480E+02, 0.000E+00, 6.036E+02, 0.000E+00, 1.500E-02, 5.261E+01
 2.500E+02, 0.000E+00, 6.060E+02, 0.000E+00, 1.500E-02, 5.268E+01
 2.520E+02, 0.000E+00, 6.022E+02, 0.000E+00, 1.500E-02, 5.246E+01
 2.540E+02, 0.000E+00, 6.000E+02, 0.000E+00, 1.500E-02, 5.232E+01
 2.560E+02, 0.000E+00, 6.027E+02, 0.000E+00, 1.500E-02, 5.253E+01
 2.580E+02, 0.000E+00, 6.065E+02, 0.000E+00, 1.500E-02, 5.274E+01
 2.600E+02, 0.000E+00, 6.002E+02, 0.000E+00, 1.500E-02, 5.231E+01
 2.620E+02, 0.000E+00, 6.016E+02, 0.000E+00, 1.500E-02, 5.242E+01
 2.640E+02, 0.000E+00, 6.039E+02, 0.000E+00, 1.500E-02, 5.255E+01
 2.660E+02, 0.000E+00, 6.020E+02, 0.000E+00, 1.500E-02, 5.245E+01
 2.680E+02, 0.000E+00, 5.967E+02, 0.000E+00, 1.500E-02, 5.210E+01
 2.700E+02, 0.000E+00, 6.029E+02, 0.000E+00, 1.500E-02, 5.256E+01
 2.720E+02, 0.000E+00, 5.994E+02, 0.000E+00, 1.500E-02, 5.228E+01
 2.740E+02, 0.000E+00, 5.991E+02, 0.000E+00, 1.500E-02, 5.230E+01
 2.760E+02, 0.000E+00, 5.991E+02, 0.000E+00, 1.500E-02, 5.225E+01
 2.780E+02, 0.000E+00, 6.000E+02, 0.000E+00, 1.500E-02, 5.236E+01
 2.800E+02, 0.000E+00, 5.978E+02, 0.000E+00, 1.500E-02, 5.220E+01
 2.820E+02, 0.000E+00, 6.022E+02, 0.000E+00, 1.500E-02, 5.254E+01
 2.840E+02, 0.000E+00, 5.985E+02, 0.000E+00, 1.500E-02, 5.221E+01
 2.860E+02, 0.000E+00, 5.976E+02, 0.000E+00, 1.500E-02, 5.219E+01
 2.880E+02, 0.000E+00, 5.952E+02, 0.000E+00, 1.500E-02, 5.203E+01
 2.900E+02, 0.000E+00, 5.979E+02, 0.000E+00, 1.500E-02, 5.226E+01
 2.920E+02, 0.000E+00, 6.047E+02, 0.000E+00, 1.500E-02, 5.267E+01
 2.940E+02, 0.000E+00, 6.034E+02, 0.000E+00, 1.500E-02, 5.256E+01
 2.960E+02, 0.000E+00, 5.952E+02, 0.000E+00, 1.500E-02, 5.201E+01
 2.980E+02, 0.000E+00, 5.977E+02, 0.000E+00, 1.500E-02, 5.219E+01
 3.000E+02, 0.000E+00, 5.970E+02, 0.000E+00, 1.500E-02, 5.219E+01
