s,kW,C,kg/s,m,kW/m2
Time,"HRR","temp","MLR","thick","flux"
 0.000E+00, 0.000E+00, 2.000E+01, 0.000E+00, 1.900E-02,-4.758E-11
 2.012E+00, 0.000E+00, 4.283E+01, 8.945E-21, 1.900E-02, 5.002E+01
 4.003E+00, 0.000E+00, 7.520E+01, 3.981E-18, 1.900E-02, 5.013E+01
 6.004E+00, 0.000E+00, 9.905E+01, 2.828E-16, 1.900E-02, 5.023E+01
 8.007E+00, 0.000E+00, 1.188E+02, 7.280E-15, 1.900E-02, 5.027E+01
 1.001E+01, 0.000E+00, 1.358E+02, 9.945E-14, 1.900E-02, 5.031E+01
 1.201E+01, 2.495E-09, 1.510E+02, 8.735E-13, 1.900E-02, 5.036E+01
 1.401E+01, 8.645E-08, 1.648E+02, 5.571E-12, 1.900E-02, 5.042E+01
 1.601E+01, 5.136E-07, 1.775E+02, 2.774E-11, 1.900E-02, 5.049E+01
 1.801E+01, 2.086E-06, 1.893E+02, 1.142E-10, 1.900E-02, 5.055E+01
 2.001E+01, 7.539E-06, 2.004E+02, 4.034E-10, 1.900E-02, 5.064E+01
 2.200E+01, 2.363E-05, 2.108E+02, 1.251E-09, 1.900E-02, 5.064E+01
 2.401E+01, 6.647E-05, 2.203E+02, 3.501E-09, 1.900E-02, 5.062E+01
 2.601E+01, 1.711E-04, 2.298E+02, 8.982E-09, 1.900E-02, 5.081E+01
 2.801E+01, 4.063E-04, 2.385E+02, 2.129E-08, 1.900E-02, 5.073E+01
 3.001E+01, 9.023E-04, 2.469E+02, 4.721E-08, 1.900E-02, 5.088E+01
 3.201E+01, 1.896E-03, 2.550E+02, 9.903E-08, 1.900E-02, 5.086E+01
 3.400E+01, 3.785E-03, 2.625E+02, 1.974E-07, 1.900E-02, 5.085E+01
 3.601E+01, 7.235E-03, 2.702E+02, 3.772E-07, 1.900E-02, 5.103E+01
 3.800E+01, 1.332E-02, 2.773E+02, 6.930E-07, 1.900E-02, 5.097E+01
 4.001E+01, 2.367E-02, 2.842E+02, 1.231E-06, 1.900E-02, 5.102E+01
 4.201E+01, 4.089E-02, 2.911E+02, 2.125E-06, 1.900E-02, 5.112E+01
 4.401E+01, 6.862E-02, 2.975E+02, 3.564E-06, 1.900E-02, 5.111E+01
 4.600E+01, 1.122E-01, 3.040E+02, 5.827E-06, 1.900E-02, 5.121E+01
 4.801E+01, 1.798E-01, 3.103E+02, 9.327E-06, 1.900E-02, 5.130E+01
 5.001E+01, 2.823E-01, 3.167E+02, 1.464E-05, 1.900E-02, 5.146E+01
 5.200E+01, 4.351E-01, 3.229E+02, 2.255E-05, 1.900E-02, 5.152E+01
 5.401E+01, 6.598E-01, 3.290E+02, 3.418E-05, 1.900E-02, 5.170E+01
 5.600E+01, 9.849E-01, 3.348E+02, 5.101E-05, 1.900E-02, 5.181E+01
 5.800E+01, 1.453E+00, 3.409E+02, 7.523E-05, 1.900E-02, 5.219E+01
 6.000E+01, 2.124E+00, 3.468E+02, 1.099E-04, 1.900E-02, 5.241E+01
 6.200E+01, 3.076E+00, 3.531E+02, 1.592E-04, 1.900E-02, 5.305E+01
 6.400E+01, 4.434E+00, 3.596E+02, 2.294E-04, 1.900E-02, 5.369E+01
 6.600E+01, 6.354E+00, 3.661E+02, 3.288E-04, 1.900E-02, 5.437E+01
 6.800E+01, 9.103E+00, 3.736E+02, 4.709E-04, 1.900E-02, 5.622E+01
 7.000E+01, 1.315E+01, 3.819E+02, 6.806E-04, 1.899E-02, 5.953E+01
 7.200E+01, 1.947E+01, 3.932E+02, 1.011E-03, 1.899E-02, 6.684E+01
 7.400E+01, 3.045E+01, 4.086E+02, 1.588E-03, 1.898E-02, 7.689E+01
 7.600E+01, 4.956E+01, 4.231E+02, 2.593E-03, 1.897E-02, 8.242E+01
 7.800E+01, 8.032E+01, 4.320E+02, 4.236E-03, 1.894E-02, 8.359E+01
 8.000E+01, 1.255E+02, 4.358E+02, 6.654E-03, 1.890E-02, 8.148E+01
 8.200E+01, 1.900E+02, 4.381E+02, 9.962E-03, 1.886E-02, 8.213E+01
 8.400E+01, 2.677E+02, 4.397E+02, 1.416E-02, 1.881E-02, 8.348E+01
 8.600E+01, 3.612E+02, 4.390E+02, 1.913E-02, 1.876E-02, 8.492E+01
 8.800E+01, 4.777E+02, 4.415E+02, 2.487E-02, 1.870E-02, 8.557E+01
 9.000E+01, 5.879E+02, 4.435E+02, 3.064E-02, 1.864E-02, 8.573E+01
 9.200E+01, 6.849E+02, 4.452E+02, 3.571E-02, 1.857E-02, 8.675E+01
 9.400E+01, 7.591E+02, 4.463E+02, 4.038E-02, 1.850E-02, 8.838E+01
 9.600E+01, 7.993E+02, 4.429E+02, 4.207E-02, 1.843E-02, 8.513E+01
 9.800E+01, 8.749E+02, 4.440E+02, 4.433E-02, 1.836E-02, 8.598E+01
 1.000E+02, 8.931E+02, 4.458E+02, 4.671E-02, 1.828E-02, 8.619E+01
 1.020E+02, 9.401E+02, 4.481E+02, 4.908E-02, 1.820E-02, 8.793E+01
 1.040E+02, 9.436E+02, 4.451E+02, 4.947E-02, 1.812E-02, 8.786E+01
 1.060E+02, 9.702E+02, 4.451E+02, 5.030E-02, 1.804E-02, 8.407E+01
 1.080E+02, 1.014E+03, 4.466E+02, 5.243E-02, 1.796E-02, 8.545E+01
 1.100E+02, 1.047E+03, 4.477E+02, 5.503E-02, 1.787E-02, 8.684E+01
 1.120E+02, 1.064E+03, 4.453E+02, 5.591E-02, 1.778E-02, 8.596E+01
 1.140E+02, 1.135E+03, 4.476E+02, 5.828E-02, 1.769E-02, 8.729E+01
 1.160E+02, 1.162E+03, 4.497E+02, 6.159E-02, 1.759E-02, 8.848E+01
 1.180E+02, 1.211E+03, 4.474E+02, 6.363E-02, 1.749E-02, 8.786E+01
 1.200E+02, 1.254E+03, 4.494E+02, 6.593E-02, 1.739E-02, 8.974E+01
 1.220E+02, 1.287E+03, 4.505E+02, 6.740E-02, 1.727E-02, 8.791E+01
 1.240E+02, 1.299E+03, 4.484E+02, 6.935E-02, 1.716E-02, 8.771E+01
 1.260E+02, 1.366E+03, 4.503E+02, 7.270E-02, 1.704E-02, 8.944E+01
 1.280E+02, 1.395E+03, 4.505E+02, 7.565E-02, 1.692E-02, 8.839E+01
 1.300E+02, 1.506E+03, 4.501E+02, 7.903E-02, 1.679E-02, 8.924E+01
 1.320E+02, 1.480E+03, 4.518E+02, 8.207E-02, 1.665E-02, 8.811E+01
 1.340E+02, 1.577E+03, 4.499E+02, 8.572E-02, 1.651E-02, 8.814E+01
 1.360E+02, 1.640E+03, 4.521E+02, 8.942E-02, 1.637E-02, 9.033E+01
 1.380E+02, 1.650E+03, 4.515E+02, 9.271E-02, 1.622E-02, 8.855E+01
 1.400E+02, 1.757E+03, 4.532E+02, 9.608E-02, 1.607E-02, 9.090E+01
 1.420E+02, 1.728E+03, 4.525E+02, 9.735E-02, 1.591E-02, 8.863E+01
 1.440E+02, 1.777E+03, 4.545E+02, 9.923E-02, 1.576E-02, 8.839E+01
 1.460E+02, 1.762E+03, 4.553E+02, 9.969E-02, 1.560E-02, 8.781E+01
 1.480E+02, 1.820E+03, 4.592E+02, 1.014E-01, 1.545E-02, 9.020E+01
 1.500E+02, 1.802E+03, 4.650E+02, 1.012E-01, 1.530E-02, 8.932E+01
 1.520E+02, 1.768E+03, 4.752E+02, 9.704E-02, 1.517E-02, 9.035E+01
 1.540E+02, 1.648E+03, 4.978E+02, 8.691E-02, 1.505E-02, 9.095E+01
 1.560E+02, 1.340E+03, 7.105E+02, 6.456E-02, 1.500E-02, 9.082E+01
 1.580E+02, 8.524E+02, 7.615E+02, 4.167E-02, 1.500E-02, 9.022E+01
 1.600E+02, 6.067E+02, 7.806E+02, 2.996E-02, 1.500E-02, 9.430E+01
 1.620E+02, 4.674E+02, 7.843E+02, 2.330E-02, 1.500E-02, 9.234E+01
 1.640E+02, 2.842E+02, 7.449E+02, 1.417E-02, 1.500E-02, 8.021E+01
 1.660E+02, 2.208E+02, 7.407E+02, 1.124E-02, 1.500E-02, 7.857E+01
 1.680E+02, 1.553E+02, 7.016E+02, 7.915E-03, 1.500E-02, 6.740E+01
 1.700E+02, 1.348E+02, 6.664E+02, 6.900E-03, 1.500E-02, 6.208E+01
 1.720E+02, 1.185E+02, 6.450E+02, 6.027E-03, 1.500E-02, 5.893E+01
 1.740E+02, 7.195E+01, 6.266E+02, 3.632E-03, 1.500E-02, 5.586E+01
 1.760E+02, 4.449E+01, 6.116E+02, 2.291E-03, 1.500E-02, 5.391E+01
 1.780E+02, 4.210E+01, 6.065E+02, 2.153E-03, 1.500E-02, 5.354E+01
 1.800E+02, 3.738E+01, 6.042E+02, 1.933E-03, 1.500E-02, 5.361E+01
 1.820E+02, 3.307E+01, 5.995E+02, 1.684E-03, 1.500E-02, 5.298E+01
 1.840E+02, 2.126E+01, 5.872E+02, 1.066E-03, 1.500E-02, 5.178E+01
 1.860E+02, 8.288E-01, 5.846E+02, 2.898E-05, 1.500E-02, 5.124E+01
 1.880E+02, 0.000E+00, 5.951E+02, 0.000E+00, 1.500E-02, 5.204E+01
 1.900E+02, 0.000E+00, 6.045E+02, 0.000E+00, 1.500E-02, 5.260E+01
 1.920E+02, 0.000E+00, 6.059E+02, 0.000E+00, 1.500E-02, 5.273E+01
 1.940E+02, 0.000E+00, 6.047E+02, 0.000E+00, 1.500E-02, 5.264E+01
 1.960E+02, 0.000E+00, 6.008E+02, 0.000E+00, 1.500E-02, 5.238E+01
 1.980E+02, 0.000E+00, 6.028E+02, 0.000E+00, 1.500E-02, 5.249E+01
 2.000E+02, 0.000E+00, 5.987E+02, 0.000E+00, 1.500E-02, 5.223E+01
 2.020E+02, 0.000E+00, 6.013E+02, 0.000E+00, 1.500E-02, 5.246E+01
 2.040E+02, 0.000E+00, 5.988E+02, 0.000E+00, 1.500E-02, 5.228E+01
 2.060E+02, 0.000E+00, 6.008E+02, 0.000E+00, 1.500E-02, 5.242E+01
 2.080E+02, 0.000E+00, 6.047E+02, 0.000E+00, 1.500E-02, 5.265E+01
 2.100E+02, 0.000E+00, 6.082E+02, 0.000E+00, 1.500E-02, 5.286E+01
 2.120E+02, 0.000E+00, 6.038E+02, 0.000E+00, 1.500E-02, 5.257E+01
 2.140E+02, 0.000E+00, 6.061E+02, 0.000E+00, 1.500E-02, 5.268E+01
 2.160E+02, 0.000E+00, 6.036E+02, 0.000E+00, 1.500E-02, 5.256E+01
 2.180E+02, 0.000E+00, 6.083E+02, 0.000E+00, 1.500E-02, 5.285E+01
 2.200E+02, 0.000E+00, 6.034E+02, 0.000E+00, 1.500E-02, 5.252E+01
 2.220E+02, 0.000E+00, 6.054E+02, 0.000E+00, 1.500E-02, 5.267E+01
 2.240E+02, 0.000E+00, 6.008E+02, 0.000E+00, 1.500E-02, 5.237E+01
 2.260E+02, 0.000E+00, 6.011E+02, 0.000E+00, 1.500E-02, 5.240E+01
 2.280E+02, 0.000E+00, 6.006E+02, 0.000E+00, 1.500E-02, 5.240E+01
 2.300E+02, 0.000E+00, 5.966E+02, 0.000E+00, 1.500E-02, 5.207E+01
 2.320E+02, 0.000E+00, 5.963E+02, 0.000E+00, 1.500E-02, 5.211E+01
 2.340E+02, 0.000E+00, 6.027E+02, 0.000E+00, 1.500E-02, 5.255E+01
 2.360E+02, 0.000E+00, 6.037E+02, 0.000E+00, 1.500E-02, 5.259E+01
 2.380E+02, 0.000E+00, 6.017E+02, 0.000E+00, 1.500E-02, 5.246E+01
 2.400E+02, 0.000E+00, 6.085E+02, 0.000E+00, 1.500E-02, 5.286E+01
 2.420E+02, 0.000E+00, 6.016E+02, 0.000E+00, 1.500E-02, 5.243E+01
 2.440E+02, 0.000E+00, 5.996E+02, 0.000E+00, 1.500E-02, 5.232E+01
 2.460E+02, 0.000E+00, 6.069E+02, 0.000E+00, 1.500E-02, 5.280E+01
 2.480E+02, 0.000E+00, 6.008E+02, 0.000E+00, 1.500E-02, 5.237E+01
 2.500E+02, 0.000E+00, 6.050E+02, 0.000E+00, 1.500E-02, 5.267E+01
 2.520E+02, 0.000E+00, 6.029E+02, 0.000E+00, 1.500E-02, 5.248E+01
 2.540E+02, 0.000E+00, 6.006E+02, 0.000E+00, 1.500E-02, 5.238E+01
 2.560E+02, 0.000E+00, 6.012E+02, 0.000E+00, 1.500E-02, 5.244E+01
 2.580E+02, 0.000E+00, 6.037E+02, 0.000E+00, 1.500E-02, 5.258E+01
 2.600E+02, 0.000E+00, 6.083E+02, 0.000E+00, 1.500E-02, 5.287E+01
 2.620E+02, 0.000E+00, 5.999E+02, 0.000E+00, 1.500E-02, 5.226E+01
 2.640E+02, 0.000E+00, 5.928E+02, 0.000E+00, 1.500E-02, 5.183E+01
 2.660E+02, 0.000E+00, 5.999E+02, 0.000E+00, 1.500E-02, 5.239E+01
 2.680E+02, 0.000E+00, 6.002E+02, 0.000E+00, 1.500E-02, 5.236E+01
 2.700E+02, 0.000E+00, 5.984E+02, 0.000E+00, 1.500E-02, 5.226E+01
 2.720E+02, 0.000E+00, 6.000E+02, 0.000E+00, 1.500E-02, 5.235E+01
 2.740E+02, 0.000E+00, 6.026E+02, 0.000E+00, 1.500E-02, 5.252E+01
 2.760E+02, 0.000E+00, 6.011E+02, 0.000E+00, 1.500E-02, 5.241E+01
 2.780E+02, 0.000E+00, 6.008E+02, 0.000E+00, 1.500E-02, 5.242E+01
 2.800E+02, 0.000E+00, 6.007E+02, 0.000E+00, 1.500E-02, 5.236E+01
 2.820E+02, 0.000E+00, 6.008E+02, 0.000E+00, 1.500E-02, 5.241E+01
 2.840E+02, 0.000E+00, 6.036E+02, 0.000E+00, 1.500E-02, 5.254E+01
 2.860E+02, 0.000E+00, 6.022E+02, 0.000E+00, 1.500E-02, 5.250E+01
 2.880E+02, 0.000E+00, 5.992E+02, 0.000E+00, 1.500E-02, 5.229E+01
 2.900E+02, 0.000E+00, 5.980E+02, 0.000E+00, 1.500E-02, 5.221E+01
 2.920E+02, 0.000E+00, 5.969E+02, 0.000E+00, 1.500E-02, 5.215E+01
 2.940E+02, 0.000E+00, 5.963E+02, 0.000E+00, 1.500E-02, 5.213E+01
 2.960E+02, 0.000E+00, 6.079E+02, 0.000E+00, 1.500E-02, 5.287E+01
 2.980E+02, 0.000E+00, 6.038E+02, 0.000E+00, 1.500E-02, 5.258E+01
 3.000E+02, 0.000E+00, 6.023E+02, 0.000E+00, 1.500E-02, 5.251E+01
