s,C,kg/m2/s,m
Time,"temp","MLR","thick"
 0.0000000E+000, 2.0000000E+001, 0.0000000E+000, 3.1534299E-002
 5.1000000E+000, 6.3157955E+001, 0.0000000E+000, 3.1534299E-002
 1.0100000E+001, 1.2560425E+002, 0.0000000E+000, 3.1534299E-002
 1.5100000E+001, 1.6282602E+002, 7.8672909E-020, 3.1534299E-002
 2.0000000E+001, 1.9333296E+002, 5.5808030E-017, 3.1534299E-002
 2.5000000E+001, 2.2469513E+002, 1.1873321E-014, 3.1534299E-002
 3.0000000E+001, 2.5279858E+002, 8.9020073E-013, 3.1534299E-002
 3.5000000E+001, 2.7779019E+002, 2.9878655E-011, 3.1534299E-002
 4.0000000E+001, 3.0018674E+002, 5.4762828E-010, 3.1534299E-002
 4.5000000E+001, 3.2044940E+002, 6.4465571E-009, 3.1534299E-002
 5.0000000E+001, 3.3876764E+002, 5.3350892E-008, 3.1534299E-002
 5.5000000E+001, 3.5539777E+002, 3.2910461E-007, 3.1534299E-002
 6.0000000E+001, 3.7063287E+002, 1.6153347E-006, 3.1534296E-002
 6.5000000E+001, 3.8457248E+002, 6.5478848E-006, 3.1534273E-002
 7.0000000E+001, 3.9736621E+002, 2.2550308E-005, 3.1534202E-002
 7.5000000E+001, 4.0911267E+002, 6.7665205E-005, 3.1533971E-002
 8.0100000E+001, 4.1988696E+002, 1.8030360E-004, 3.1533320E-002
 8.5100000E+001, 4.2947693E+002, 4.2105233E-004, 3.1531714E-002
 9.0100000E+001, 4.3757785E+002, 8.5206405E-004, 3.1528294E-002
 9.5100000E+001, 4.4408994E+002, 1.4944091E-003, 3.1521901E-002
 1.0010000E+002, 4.4900327E+002, 2.2853566E-003, 3.1511515E-002
 1.0510000E+002, 4.5255972E+002, 3.1178459E-003, 3.1496625E-002
 1.1010000E+002, 4.5512357E+002, 3.9118072E-003, 3.1477239E-002
 1.1510000E+002, 4.5701999E+002, 4.6358481E-003, 3.1453684E-002
 1.2010000E+002, 4.5847644E+002, 5.2883988E-003, 3.1426352E-002
 1.2510000E+002, 4.5901389E+002, 5.7575740E-003, 3.1395778E-002
 1.3010000E+002, 4.5951398E+002, 6.2555918E-003, 3.1362951E-002
 1.3510000E+002, 4.6052213E+002, 6.8221125E-003, 3.1326946E-002
 1.4010000E+002, 4.6134961E+002, 7.3277396E-003, 3.1288031E-002
 1.4510000E+002, 4.6207819E+002, 7.8117847E-003, 3.1246407E-002
 1.5010000E+002, 4.6273761E+002, 8.2890531E-003, 3.1202147E-002
 1.5510000E+002, 4.6333981E+002, 8.7640611E-003, 3.1155270E-002
 1.6010000E+002, 4.6386609E+002, 9.2372783E-003, 3.1105788E-002
 1.6510000E+002, 4.6309869E+002, 9.5411511E-003, 3.1054178E-002
 1.7010000E+002, 4.6371539E+002, 1.0062223E-002, 3.1000325E-002
 1.7510000E+002, 4.6430014E+002, 1.0579896E-002, 3.0943576E-002
 1.8010000E+002, 4.6481985E+002, 1.1074579E-002, 3.0884050E-002
 1.8510000E+002, 4.6528561E+002, 1.1553918E-002, 3.0821852E-002
 1.9010000E+002, 4.6494958E+002, 1.1907490E-002, 3.0757254E-002
 1.9510000E+002, 4.6503482E+002, 1.2352577E-002, 3.0690735E-002
 2.0010000E+002, 4.6552847E+002, 1.2871872E-002, 3.0621391E-002
 2.0510000E+002, 4.6596335E+002, 1.3358532E-002, 3.0549292E-002
 2.1010000E+002, 4.6612674E+002, 1.3791553E-002, 3.0474596E-002
 2.1510000E+002, 4.6568649E+002, 1.4123725E-002, 3.0398000E-002
 2.2010000E+002, 4.6613507E+002, 1.4649792E-002, 3.0318907E-002
 2.2510000E+002, 4.6653320E+002, 1.5135183E-002, 3.0237038E-002
 2.3010000E+002, 4.6654221E+002, 1.5533766E-002, 3.0152639E-002
 2.3510000E+002, 4.6628452E+002, 1.5906747E-002, 3.0066397E-002
 2.4010000E+002, 4.6668686E+002, 1.6416257E-002, 2.9977543E-002
 2.4510000E+002, 4.6703900E+002, 1.6879302E-002, 2.9886030E-002
 2.5010000E+002, 4.6658517E+002, 1.7182281E-002, 2.9792389E-002
 2.5510000E+002, 4.6682684E+002, 1.7654853E-002, 2.9696720E-002
 2.6010000E+002, 4.6717407E+002, 1.8104626E-002, 2.9598430E-002
 2.6510000E+002, 4.6693597E+002, 1.8408721E-002, 2.9497987E-002
 2.7010000E+002, 4.6696710E+002, 1.8796032E-002, 2.9395876E-002
 2.7510000E+002, 4.6730249E+002, 1.9192528E-002, 2.9291455E-002
 2.8010000E+002, 4.6709256E+002, 1.9431360E-002, 2.9185213E-002
 2.8510000E+002, 4.6710559E+002, 1.9735541E-002, 2.9077709E-002
 2.9010000E+002, 4.6742545E+002, 2.0037999E-002, 2.8968384E-002
 2.9510000E+002, 4.6712732E+002, 2.0168429E-002, 2.8857833E-002
 3.0010000E+002, 4.6724142E+002, 2.0402571E-002, 2.8746439E-002
 3.0500000E+002, 4.6754382E+002, 2.0605206E-002, 2.8634865E-002
 3.1000000E+002, 4.6711328E+002, 2.0637309E-002, 2.8522683E-002
 3.1500000E+002, 4.6737146E+002, 2.0830279E-002, 2.8408760E-002
 3.2000000E+002, 4.6753430E+002, 2.0940248E-002, 2.8293915E-002
 3.2500000E+002, 4.6719702E+002, 2.0963212E-002, 2.8178897E-002
 3.3000000E+002, 4.6752368E+002, 2.1120548E-002, 2.8063232E-002
 3.3500000E+002, 4.6745804E+002, 2.1146320E-002, 2.7947001E-002
 3.4000000E+002, 4.6738110E+002, 2.1219585E-002, 2.7830739E-002
 3.4500000E+002, 4.6770895E+002, 2.1328662E-002, 2.7713804E-002
 3.5000000E+002, 4.6743298E+002, 2.1300919E-002, 2.7596649E-002
 3.5500000E+002, 4.6761411E+002, 2.1405373E-002, 2.7479371E-002
 3.6000000E+002, 4.6786929E+002, 2.1452056E-002, 2.7361568E-002
 3.6500000E+002, 4.6755914E+002, 2.1422297E-002, 2.7243868E-002
 3.7000000E+002, 4.6795114E+002, 2.1505451E-002, 2.7125875E-002
 3.7500000E+002, 4.6800186E+002, 2.1472162E-002, 2.7007731E-002
 3.8000000E+002, 4.6803534E+002, 2.1481851E-002, 2.6889808E-002
 3.8500000E+002, 4.6850623E+002, 2.1479612E-002, 2.6771745E-002
 3.9000000E+002, 4.6845889E+002, 2.1390747E-002, 2.6653957E-002
 3.9500000E+002, 4.6892789E+002, 2.1355970E-002, 2.6536526E-002
 4.0000000E+002, 4.6955423E+002, 2.1263005E-002, 2.6419412E-002
 4.0500000E+002, 4.6986554E+002, 2.1089034E-002, 2.6303094E-002
 4.1000000E+002, 4.7096725E+002, 2.0954711E-002, 2.6187558E-002
 4.1500000E+002, 4.7223605E+002, 2.0699160E-002, 2.6073016E-002
 4.2000000E+002, 4.7400076E+002, 2.0411817E-002, 2.5960185E-002
 4.2500000E+002, 4.7664667E+002, 2.0128688E-002, 2.5848780E-002
 4.3000000E+002, 4.8111523E+002, 1.9530725E-002, 2.5739623E-002
 4.3500000E+002, 4.8731244E+002, 1.9069130E-002, 2.5633764E-002
 4.4000000E+002, 4.9731702E+002, 1.8306553E-002, 2.5530826E-002
 4.4500000E+002, 5.7501947E+002, 8.6933058E-003, 2.5446061E-002
 4.5000000E+002, 5.5286572E+002, 0.0000000E+000, 2.5434300E-002
 4.5500000E+002, 5.3035883E+002, 0.0000000E+000, 2.5434300E-002
 4.6000000E+002, 5.2315240E+002, 0.0000000E+000, 2.5434300E-002
 4.6500000E+002, 5.2012622E+002, 0.0000000E+000, 2.5434300E-002
 4.7000000E+002, 5.1886810E+002, 0.0000000E+000, 2.5434300E-002
 4.7500000E+002, 5.1849286E+002, 0.0000000E+000, 2.5434300E-002
 4.8000000E+002, 5.1858844E+002, 0.0000000E+000, 2.5434300E-002
 4.8500000E+002, 5.1894165E+002, 0.0000000E+000, 2.5434300E-002
 4.9000000E+002, 5.1943506E+002, 0.0000000E+000, 2.5434300E-002
 4.9500000E+002, 5.2000122E+002, 0.0000000E+000, 2.5434300E-002
 5.0000000E+002, 5.2060016E+002, 0.0000000E+000, 2.5434300E-002
 5.0500000E+002, 5.2120776E+002, 0.0000000E+000, 2.5434300E-002
 5.1000000E+002, 5.2180957E+002, 0.0000000E+000, 2.5434300E-002
 5.1500000E+002, 5.2239685E+002, 0.0000000E+000, 2.5434300E-002
 5.2000000E+002, 5.2296460E+002, 0.0000000E+000, 2.5434300E-002
 5.2500000E+002, 5.2351007E+002, 0.0000000E+000, 2.5434300E-002
 5.3000000E+002, 5.2403198E+002, 0.0000000E+000, 2.5434300E-002
 5.3500000E+002, 5.2452991E+002, 0.0000000E+000, 2.5434300E-002
 5.4000000E+002, 5.2500403E+002, 0.0000000E+000, 2.5434300E-002
 5.4500000E+002, 5.2545496E+002, 0.0000000E+000, 2.5434300E-002
 5.5000000E+002, 5.2588324E+002, 0.0000000E+000, 2.5434300E-002
 5.5500000E+002, 5.2628986E+002, 0.0000000E+000, 2.5434300E-002
 5.6000000E+002, 5.2667554E+002, 0.0000000E+000, 2.5434300E-002
 5.6500000E+002, 5.2704138E+002, 0.0000000E+000, 2.5434300E-002
 5.7000000E+002, 5.2738812E+002, 0.0000000E+000, 2.5434300E-002
 5.7500000E+002, 5.2771674E+002, 0.0000000E+000, 2.5434300E-002
 5.8000000E+002, 5.2802808E+002, 0.0000000E+000, 2.5434300E-002
 5.8500000E+002, 5.2832300E+002, 0.0000000E+000, 2.5434300E-002
 5.9000000E+002, 5.2860223E+002, 0.0000000E+000, 2.5434300E-002
 5.9500000E+002, 5.2886670E+002, 0.0000000E+000, 2.5434300E-002
 6.0000000E+002, 5.2911700E+002, 0.0000000E+000, 2.5434300E-002
 6.0500000E+002, 5.2935394E+002, 0.0000000E+000, 2.5434300E-002
 6.1000000E+002, 5.2957819E+002, 0.0000000E+000, 2.5434300E-002
 6.1500000E+002, 5.2979041E+002, 0.0000000E+000, 2.5434300E-002
 6.2000000E+002, 5.2999115E+002, 0.0000000E+000, 2.5434300E-002
 6.2500000E+002, 5.3018103E+002, 0.0000000E+000, 2.5434300E-002
 6.3000000E+002, 5.3036072E+002, 0.0000000E+000, 2.5434300E-002
 6.3500000E+002, 5.3053064E+002, 0.0000000E+000, 2.5434300E-002
 6.4000000E+002, 5.3069128E+002, 0.0000000E+000, 2.5434300E-002
 6.4500000E+002, 5.3084326E+002, 0.0000000E+000, 2.5434300E-002
 6.5000000E+002, 5.3098688E+002, 0.0000000E+000, 2.5434300E-002
 6.5500000E+002, 5.3112274E+002, 0.0000000E+000, 2.5434300E-002
 6.6000000E+002, 5.3125116E+002, 0.0000000E+000, 2.5434300E-002
 6.6500000E+002, 5.3137256E+002, 0.0000000E+000, 2.5434300E-002
 6.7000000E+002, 5.3148724E+002, 0.0000000E+000, 2.5434300E-002
 6.7500000E+002, 5.3159570E+002, 0.0000000E+000, 2.5434300E-002
 6.8000000E+002, 5.3169824E+002, 0.0000000E+000, 2.5434300E-002
 6.8500000E+002, 5.3179504E+002, 0.0000000E+000, 2.5434300E-002
 6.9000000E+002, 5.3188660E+002, 0.0000000E+000, 2.5434300E-002
 6.9500000E+002, 5.3197308E+002, 0.0000000E+000, 2.5434300E-002
 7.0000000E+002, 5.3205481E+002, 0.0000000E+000, 2.5434300E-002
