s,kW,C,kg/s,m,kW/m2
Time,"HRR","temp","MLR","thick","flux"
 0.000E+00, 0.000E+00, 2.000E+01, 0.000E+00, 1.900E-02,-4.813E-11
 2.012E+00, 0.000E+00, 3.630E+01, 7.251E-22, 1.900E-02, 3.501E+01
 4.003E+00, 0.000E+00, 5.876E+01, 7.478E-20, 1.900E-02, 3.507E+01
 6.015E+00, 0.000E+00, 7.508E+01, 2.092E-18, 1.900E-02, 3.514E+01
 8.012E+00, 0.000E+00, 8.852E+01, 2.799E-17, 1.900E-02, 3.518E+01
 1.000E+01, 0.000E+00, 1.001E+02, 2.335E-16, 1.900E-02, 3.521E+01
 1.201E+01, 0.000E+00, 1.104E+02, 1.417E-15, 1.900E-02, 3.523E+01
 1.402E+01, 0.000E+00, 1.198E+02, 6.804E-15, 1.900E-02, 3.526E+01
 1.600E+01, 0.000E+00, 1.285E+02, 2.698E-14, 1.900E-02, 3.529E+01
 1.800E+01, 0.000E+00, 1.365E+02, 9.232E-14, 1.900E-02, 3.531E+01
 2.001E+01, 0.000E+00, 1.441E+02, 2.832E-13, 1.900E-02, 3.536E+01
 2.201E+01, 3.593E-10, 1.513E+02, 7.865E-13, 1.900E-02, 3.539E+01
 2.400E+01, 1.835E-08, 1.580E+02, 2.009E-12, 1.900E-02, 3.539E+01
 2.601E+01, 7.193E-08, 1.646E+02, 4.821E-12, 1.900E-02, 3.544E+01
 2.801E+01, 1.986E-07, 1.710E+02, 1.090E-11, 1.900E-02, 3.552E+01
 3.000E+01, 4.362E-07, 1.770E+02, 2.339E-11, 1.900E-02, 3.551E+01
 3.201E+01, 8.930E-07, 1.828E+02, 4.830E-11, 1.900E-02, 3.549E+01
 3.401E+01, 1.778E-06, 1.884E+02, 9.600E-11, 1.900E-02, 3.548E+01
 3.600E+01, 3.443E-06, 1.941E+02, 1.842E-10, 1.900E-02, 3.563E+01
 3.800E+01, 6.502E-06, 1.995E+02, 3.434E-10, 1.900E-02, 3.560E+01
 4.000E+01, 1.189E-05, 2.047E+02, 6.241E-10, 1.900E-02, 3.558E+01
 4.200E+01, 2.119E-05, 2.101E+02, 1.108E-09, 1.900E-02, 3.571E+01
 4.400E+01, 3.687E-05, 2.151E+02, 1.924E-09, 1.900E-02, 3.563E+01
 4.601E+01, 6.296E-05, 2.203E+02, 3.279E-09, 1.900E-02, 3.573E+01
 4.800E+01, 1.053E-04, 2.252E+02, 5.477E-09, 1.900E-02, 3.569E+01
 5.000E+01, 1.730E-04, 2.301E+02, 8.990E-09, 1.900E-02, 3.579E+01
 5.200E+01, 2.800E-04, 2.349E+02, 1.454E-08, 1.900E-02, 3.576E+01
 5.400E+01, 4.465E-04, 2.397E+02, 2.318E-08, 1.900E-02, 3.582E+01
 5.601E+01, 7.030E-04, 2.446E+02, 3.648E-08, 1.900E-02, 3.589E+01
 5.801E+01, 1.092E-03, 2.494E+02, 5.662E-08, 1.900E-02, 3.593E+01
 6.000E+01, 1.671E-03, 2.541E+02, 8.664E-08, 1.900E-02, 3.595E+01
 6.201E+01, 2.533E-03, 2.586E+02, 1.313E-07, 1.900E-02, 3.595E+01
 6.401E+01, 3.795E-03, 2.631E+02, 1.967E-07, 1.900E-02, 3.592E+01
 6.600E+01, 5.618E-03, 2.675E+02, 2.909E-07, 1.900E-02, 3.601E+01
 6.801E+01, 8.236E-03, 2.720E+02, 4.265E-07, 1.900E-02, 3.604E+01
 7.000E+01, 1.196E-02, 2.765E+02, 6.191E-07, 1.900E-02, 3.609E+01
 7.200E+01, 1.719E-02, 2.806E+02, 8.896E-07, 1.900E-02, 3.603E+01
 7.400E+01, 2.450E-02, 2.851E+02, 1.268E-06, 1.900E-02, 3.614E+01
 7.600E+01, 3.460E-02, 2.894E+02, 1.790E-06, 1.900E-02, 3.616E+01
 7.800E+01, 4.845E-02, 2.932E+02, 2.505E-06, 1.900E-02, 3.606E+01
 8.001E+01, 6.734E-02, 2.973E+02, 3.482E-06, 1.900E-02, 3.614E+01
 8.200E+01, 9.290E-02, 3.015E+02, 4.802E-06, 1.900E-02, 3.619E+01
 8.401E+01, 1.271E-01, 3.052E+02, 6.571E-06, 1.900E-02, 3.608E+01
 8.600E+01, 1.728E-01, 3.093E+02, 8.927E-06, 1.900E-02, 3.625E+01
 8.800E+01, 2.331E-01, 3.131E+02, 1.204E-05, 1.900E-02, 3.621E+01
 9.000E+01, 3.124E-01, 3.169E+02, 1.614E-05, 1.900E-02, 3.621E+01
 9.200E+01, 4.157E-01, 3.207E+02, 2.147E-05, 1.900E-02, 3.630E+01
 9.401E+01, 5.507E-01, 3.246E+02, 2.844E-05, 1.900E-02, 3.631E+01
 9.600E+01, 7.249E-01, 3.284E+02, 3.744E-05, 1.900E-02, 3.648E+01
 9.800E+01, 9.499E-01, 3.321E+02, 4.904E-05, 1.900E-02, 3.653E+01
 1.000E+02, 1.238E+00, 3.364E+02, 6.393E-05, 1.900E-02, 3.681E+01
 1.020E+02, 1.608E+00, 3.403E+02, 8.298E-05, 1.900E-02, 3.693E+01
 1.040E+02, 2.078E+00, 3.443E+02, 1.072E-04, 1.900E-02, 3.726E+01
 1.060E+02, 2.683E+00, 3.486E+02, 1.385E-04, 1.900E-02, 3.745E+01
 1.080E+02, 3.456E+00, 3.528E+02, 1.784E-04, 1.900E-02, 3.790E+01
 1.100E+02, 4.444E+00, 3.572E+02, 2.293E-04, 1.900E-02, 3.829E+01
 1.120E+02, 5.708E+00, 3.621E+02, 2.945E-04, 1.900E-02, 3.909E+01
 1.140E+02, 7.341E+00, 3.673E+02, 3.788E-04, 1.900E-02, 3.959E+01
 1.160E+02, 9.468E+00, 3.729E+02, 4.885E-04, 1.900E-02, 4.132E+01
 1.180E+02, 1.228E+01, 3.790E+02, 6.340E-04, 1.900E-02, 4.320E+01
 1.200E+02, 1.617E+01, 3.868E+02, 8.346E-04, 1.900E-02, 4.684E+01
 1.220E+02, 2.179E+01, 3.969E+02, 1.126E-03, 1.900E-02, 5.401E+01
 1.240E+02, 3.050E+01, 4.107E+02, 1.582E-03, 1.900E-02, 6.199E+01
 1.260E+02, 4.453E+01, 4.222E+02, 2.331E-03, 1.900E-02, 6.442E+01
 1.280E+02, 6.705E+01, 4.324E+02, 3.496E-03, 1.900E-02, 6.811E+01
 1.300E+02, 9.936E+01, 4.411E+02, 5.185E-03, 1.900E-02, 7.023E+01
 1.320E+02, 1.421E+02, 4.474E+02, 7.499E-03, 1.900E-02, 7.011E+01
 1.340E+02, 1.984E+02, 4.524E+02, 1.043E-02, 1.900E-02, 6.990E+01
 1.360E+02, 2.626E+02, 4.580E+02, 1.387E-02, 1.900E-02, 6.839E+01
 1.380E+02, 3.454E+02, 4.681E+02, 1.816E-02, 1.900E-02, 7.115E+01
 1.400E+02, 4.483E+02, 4.809E+02, 2.312E-02, 1.900E-02, 7.224E+01
 1.420E+02, 5.342E+02, 5.007E+02, 2.835E-02, 1.900E-02, 7.126E+01
 1.440E+02, 6.228E+02, 5.301E+02, 3.216E-02, 1.900E-02, 7.246E+01
 1.460E+02, 6.617E+02, 5.375E+02, 3.435E-02, 1.900E-02, 6.959E+01
 1.480E+02, 7.103E+02, 5.513E+02, 3.689E-02, 1.900E-02, 7.436E+01
 1.500E+02, 7.258E+02, 5.565E+02, 3.764E-02, 1.900E-02, 7.167E+01
 1.520E+02, 7.487E+02, 5.614E+02, 3.762E-02, 1.900E-02, 7.067E+01
 1.540E+02, 7.269E+02, 5.794E+02, 3.774E-02, 1.900E-02, 7.310E+01
 1.560E+02, 7.288E+02, 5.899E+02, 3.743E-02, 1.900E-02, 7.114E+01
 1.580E+02, 7.089E+02, 6.036E+02, 3.613E-02, 1.901E-02, 7.281E+01
 1.600E+02, 6.591E+02, 6.040E+02, 3.380E-02, 1.901E-02, 7.077E+01
 1.620E+02, 6.477E+02, 6.089E+02, 3.315E-02, 1.901E-02, 7.275E+01
 1.640E+02, 6.417E+02, 6.079E+02, 3.301E-02, 1.901E-02, 6.970E+01
 1.660E+02, 6.474E+02, 6.198E+02, 3.316E-02, 1.901E-02, 7.367E+01
 1.680E+02, 6.467E+02, 6.187E+02, 3.317E-02, 1.901E-02, 7.030E+01
 1.700E+02, 6.356E+02, 6.201E+02, 3.267E-02, 1.901E-02, 6.976E+01
 1.720E+02, 6.312E+02, 6.285E+02, 3.229E-02, 1.901E-02, 7.099E+01
 1.740E+02, 6.084E+02, 6.347E+02, 3.119E-02, 1.901E-02, 7.119E+01
 1.760E+02, 5.953E+02, 6.414E+02, 3.060E-02, 1.901E-02, 7.197E+01
 1.780E+02, 5.995E+02, 6.479E+02, 3.062E-02, 1.901E-02, 7.415E+01
 1.800E+02, 5.981E+02, 6.487E+02, 3.079E-02, 1.901E-02, 7.102E+01
 1.820E+02, 6.008E+02, 6.483E+02, 3.077E-02, 1.901E-02, 7.192E+01
 1.840E+02, 5.923E+02, 6.514E+02, 3.072E-02, 1.901E-02, 7.184E+01
 1.860E+02, 6.015E+02, 6.556E+02, 3.055E-02, 1.901E-02, 7.311E+01
 1.880E+02, 5.834E+02, 6.566E+02, 3.007E-02, 1.901E-02, 7.106E+01
 1.900E+02, 5.745E+02, 6.544E+02, 2.932E-02, 1.901E-02, 6.951E+01
 1.920E+02, 5.577E+02, 6.593E+02, 2.860E-02, 1.901E-02, 7.115E+01
 1.940E+02, 5.517E+02, 6.604E+02, 2.824E-02, 1.901E-02, 7.016E+01
 1.960E+02, 5.519E+02, 6.633E+02, 2.801E-02, 1.901E-02, 7.110E+01
 1.980E+02, 5.337E+02, 6.703E+02, 2.778E-02, 1.901E-02, 7.237E+01
 2.000E+02, 5.416E+02, 6.672E+02, 2.751E-02, 1.901E-02, 7.050E+01
 2.020E+02, 5.299E+02, 6.783E+02, 2.720E-02, 1.901E-02, 7.569E+01
 2.040E+02, 5.252E+02, 6.731E+02, 2.683E-02, 1.901E-02, 7.038E+01
 2.060E+02, 5.128E+02, 6.832E+02, 2.636E-02, 1.901E-02, 7.594E+01
 2.080E+02, 5.009E+02, 6.775E+02, 2.595E-02, 1.901E-02, 7.041E+01
 2.100E+02, 5.000E+02, 6.788E+02, 2.535E-02, 1.901E-02, 7.123E+01
 2.120E+02, 4.862E+02, 6.878E+02, 2.476E-02, 1.902E-02, 7.583E+01
 2.140E+02, 4.732E+02, 6.925E+02, 2.440E-02, 1.902E-02, 7.481E+01
 2.160E+02, 4.719E+02, 6.930E+02, 2.404E-02, 1.902E-02, 7.488E+01
 2.180E+02, 4.584E+02, 6.902E+02, 2.371E-02, 1.902E-02, 7.213E+01
 2.200E+02, 4.605E+02, 6.885E+02, 2.332E-02, 1.902E-02, 7.300E+01
 2.220E+02, 4.436E+02, 6.936E+02, 2.293E-02, 1.902E-02, 7.276E+01
 2.240E+02, 4.396E+02, 6.952E+02, 2.249E-02, 1.902E-02, 7.504E+01
 2.260E+02, 4.327E+02, 6.985E+02, 2.205E-02, 1.902E-02, 7.488E+01
 2.280E+02, 4.203E+02, 6.977E+02, 2.156E-02, 1.902E-02, 7.286E+01
 2.300E+02, 4.128E+02, 6.994E+02, 2.110E-02, 1.902E-02, 7.398E+01
 2.320E+02, 4.054E+02, 6.997E+02, 2.073E-02, 1.902E-02, 7.366E+01
 2.340E+02, 3.957E+02, 6.993E+02, 2.037E-02, 1.902E-02, 7.235E+01
 2.360E+02, 3.908E+02, 6.930E+02, 2.000E-02, 1.902E-02, 6.997E+01
 2.380E+02, 3.829E+02, 7.026E+02, 1.964E-02, 1.902E-02, 7.539E+01
 2.400E+02, 3.759E+02, 7.088E+02, 1.935E-02, 1.902E-02, 7.552E+01
 2.420E+02, 3.717E+02, 7.021E+02, 1.901E-02, 1.902E-02, 7.164E+01
 2.440E+02, 3.620E+02, 6.974E+02, 1.861E-02, 1.902E-02, 7.014E+01
 2.460E+02, 3.600E+02, 7.015E+02, 1.821E-02, 1.902E-02, 7.326E+01
 2.480E+02, 3.461E+02, 7.095E+02, 1.786E-02, 1.902E-02, 7.551E+01
 2.500E+02, 3.455E+02, 7.060E+02, 1.758E-02, 1.902E-02, 7.202E+01
 2.520E+02, 3.370E+02, 7.120E+02, 1.731E-02, 1.902E-02, 7.573E+01
 2.540E+02, 3.312E+02, 7.107E+02, 1.704E-02, 1.902E-02, 7.359E+01
 2.560E+02, 3.281E+02, 7.136E+02, 1.675E-02, 1.902E-02, 7.456E+01
 2.580E+02, 3.203E+02, 7.142E+02, 1.645E-02, 1.902E-02, 7.368E+01
 2.600E+02, 3.149E+02, 7.126E+02, 1.611E-02, 1.902E-02, 7.400E+01
 2.620E+02, 3.082E+02, 7.162E+02, 1.574E-02, 1.902E-02, 7.455E+01
 2.640E+02, 3.002E+02, 7.083E+02, 1.539E-02, 1.902E-02, 7.145E+01
 2.660E+02, 2.941E+02, 7.227E+02, 1.501E-02, 1.902E-02, 7.741E+01
 2.680E+02, 2.858E+02, 7.145E+02, 1.466E-02, 1.902E-02, 7.158E+01
 2.700E+02, 2.785E+02, 7.189E+02, 1.435E-02, 1.902E-02, 7.562E+01
 2.720E+02, 2.762E+02, 7.185E+02, 1.408E-02, 1.903E-02, 7.406E+01
 2.740E+02, 2.705E+02, 7.204E+02, 1.383E-02, 1.903E-02, 7.439E+01
 2.760E+02, 2.632E+02, 7.230E+02, 1.358E-02, 1.903E-02, 7.502E+01
 2.780E+02, 2.606E+02, 7.136E+02, 1.329E-02, 1.903E-02, 7.091E+01
 2.800E+02, 2.518E+02, 7.226E+02, 1.296E-02, 1.903E-02, 7.500E+01
 2.820E+02, 2.488E+02, 7.244E+02, 1.262E-02, 1.903E-02, 7.576E+01
 2.840E+02, 2.386E+02, 7.276E+02, 1.228E-02, 1.903E-02, 7.520E+01
 2.860E+02, 2.346E+02, 7.205E+02, 1.193E-02, 1.903E-02, 7.225E+01
 2.880E+02, 2.253E+02, 7.195E+02, 1.157E-02, 1.903E-02, 7.199E+01
 2.900E+02, 2.170E+02, 7.229E+02, 1.121E-02, 1.903E-02, 7.286E+01
 2.920E+02, 2.127E+02, 7.158E+02, 1.084E-02, 1.903E-02, 7.069E+01
 2.940E+02, 2.043E+02, 7.214E+02, 1.040E-02, 1.903E-02, 7.358E+01
 2.960E+02, 1.946E+02, 7.291E+02, 9.941E-03, 1.903E-02, 7.536E+01
 2.980E+02, 1.840E+02, 7.264E+02, 9.449E-03, 1.903E-02, 7.348E+01
 3.000E+02, 1.750E+02, 7.273E+02, 8.929E-03, 1.903E-02, 7.381E+01
