s,C,kg/m2/s,m
Time,"temp","MLR","thick"
 0.0000000E+000, 2.0000000E+001, 0.0000000E+000, 3.1700000E-002
 5.0100000E+000, 3.0823034E+001, 9.9948511E-016, 3.1700000E-002
 1.0010000E+001, 9.9055275E+001, 8.3857287E-012, 3.1700000E-002
 1.5010000E+001, 1.4910756E+002, 1.2693331E-009, 3.1700000E-002
 2.0000000E+001, 1.8667979E+002, 3.6046451E-008, 3.1700000E-002
 2.5000000E+001, 2.1725642E+002, 4.1865488E-007, 3.1700000E-002
 3.0000000E+001, 2.4317569E+002, 2.7843816E-006, 3.1699996E-002
 3.5000000E+001, 2.6554431E+002, 1.2635064E-005, 3.1699970E-002
 4.0000000E+001, 2.8442188E+002, 4.2142350E-005, 3.1699885E-002
 4.5010000E+001, 3.0114435E+002, 1.1492299E-004, 3.1699624E-002
 5.0010000E+001, 3.1574765E+002, 2.6538226E-004, 3.1698983E-002
 5.5010000E+001, 3.2791199E+002, 5.2205881E-004, 3.1697638E-002
 6.0010000E+001, 3.3837796E+002, 9.1431418E-004, 3.1695157E-002
 6.5010000E+001, 3.4701779E+002, 1.4383530E-003, 3.1691059E-002
 7.0010000E+001, 3.5371069E+002, 2.0411531E-003, 3.1684969E-002
 7.5000000E+001, 3.5922458E+002, 2.6960329E-003, 3.1676684E-002
 8.0000000E+001, 3.6349503E+002, 3.3476714E-003, 3.1666078E-002
 8.5000000E+001, 3.6633752E+002, 3.8992341E-003, 3.1653233E-002
 9.0000000E+001, 3.6817908E+002, 4.4234176E-003, 3.1638779E-002
 9.5000000E+001, 3.7100110E+002, 5.0664218E-003, 3.1622082E-002
 1.0000000E+002, 3.7281989E+002, 5.5434071E-003, 3.1603340E-002
 1.0500000E+002, 3.7334787E+002, 5.8857594E-003, 3.1583469E-002
 1.1000000E+002, 3.7545258E+002, 6.4878268E-003, 3.1561684E-002
 1.1500000E+002, 3.7579282E+002, 6.7231557E-003, 3.1538371E-002
 1.2000000E+002, 3.7710861E+002, 7.2481111E-003, 3.1513989E-002
 1.2500000E+002, 3.7809116E+002, 7.6199085E-003, 3.1487729E-002
 1.3000000E+002, 3.7871011E+002, 7.9783192E-003, 3.1460606E-002
 1.3500000E+002, 3.7983871E+002, 8.4398212E-003, 3.1431653E-002
 1.4000000E+002, 3.7967615E+002, 8.6181257E-003, 3.1401884E-002
 1.4500000E+002, 3.8143625E+002, 9.2110746E-003, 3.1370517E-002
 1.5000000E+002, 3.8119214E+002, 9.3790479E-003, 3.1338017E-002
 1.5500000E+002, 3.8242810E+002, 9.8987846E-003, 3.1303972E-002
 1.6001000E+002, 3.8221747E+002, 1.0074540E-002, 3.1269081E-002
 1.6501000E+002, 3.8328976E+002, 1.0530675E-002, 3.1232622E-002
 1.7001000E+002, 3.8346747E+002, 1.0829027E-002, 3.1195384E-002
 1.7501000E+002, 3.8395255E+002, 1.1119708E-002, 3.1156700E-002
 1.8001000E+002, 3.8463113E+002, 1.1563482E-002, 3.1117093E-002
 1.8501000E+002, 3.8470743E+002, 1.1772427E-002, 3.1076046E-002
 1.9001000E+002, 3.8534973E+002, 1.2219560E-002, 3.1033933E-002
 1.9501000E+002, 3.8526389E+002, 1.2377430E-002, 3.0990977E-002
 2.0001000E+002, 3.8579794E+002, 1.2736325E-002, 3.0946618E-002
 2.0501000E+002, 3.8629272E+002, 1.3150636E-002, 3.0901397E-002
 2.1001000E+002, 3.8625879E+002, 1.3329198E-002, 3.0854857E-002
 2.1501000E+002, 3.8697296E+002, 1.3781275E-002, 3.0807242E-002
 2.2001000E+002, 3.8687729E+002, 1.4001150E-002, 3.0758677E-002
 2.2501000E+002, 3.8716907E+002, 1.4296521E-002, 3.0708782E-002
 2.3001000E+002, 3.8813715E+002, 1.4803965E-002, 3.0657934E-002
 2.3501000E+002, 3.8768680E+002, 1.4932843E-002, 3.0605799E-002
 2.4001000E+002, 3.8789407E+002, 1.5200499E-002, 3.0552713E-002
 2.4501000E+002, 3.8867502E+002, 1.5672999E-002, 3.0498696E-002
 2.5001000E+002, 3.8855582E+002, 1.5841423E-002, 3.0443456E-002
 2.5501000E+002, 3.8886420E+002, 1.6151847E-002, 3.0387133E-002
 2.6001000E+002, 3.8910144E+002, 1.6454231E-002, 3.0330092E-002
 2.6501000E+002, 3.8903967E+002, 1.6622242E-002, 3.0272035E-002
 2.7001000E+002, 3.8935287E+002, 1.6896451E-002, 3.0213049E-002
 2.7501000E+002, 3.8934021E+002, 1.7100850E-002, 3.0153554E-002
 2.8001000E+002, 3.8958792E+002, 1.7292682E-002, 3.0093314E-002
 2.8501000E+002, 3.8971716E+002, 1.7512951E-002, 3.0031979E-002
 2.9001000E+002, 3.8976480E+002, 1.7678067E-002, 2.9970404E-002
 2.9501000E+002, 3.8996158E+002, 1.7833987E-002, 2.9908188E-002
 3.0001000E+002, 3.9018900E+002, 1.8023277E-002, 2.9845068E-002
 3.0501000E+002, 3.9039249E+002, 1.8206792E-002, 2.9781586E-002
 3.1001000E+002, 3.9013654E+002, 1.8216835E-002, 2.9717781E-002
 3.1501000E+002, 3.9021768E+002, 1.8309806E-002, 2.9653510E-002
 3.2001000E+002, 3.9071518E+002, 1.8499861E-002, 2.9589072E-002
 3.2501000E+002, 3.8868954E+002, 1.8075125E-002, 2.9524533E-002
 3.3001000E+002, 3.8797995E+002, 1.8515114E-002, 2.9460803E-002
 3.3501000E+002, 3.8759109E+002, 1.8684050E-002, 2.9395476E-002
 3.4001000E+002, 3.8821664E+002, 1.8875781E-002, 2.9329447E-002
 3.4501000E+002, 3.8839307E+002, 1.9021224E-002, 2.9263066E-002
 3.5001000E+002, 3.8862711E+002, 1.9063730E-002, 2.9196147E-002
 3.5501000E+002, 3.8898148E+002, 1.9177681E-002, 2.9129038E-002
 3.6001000E+002, 3.8858746E+002, 1.9070769E-002, 2.9062074E-002
 3.6501000E+002, 3.8903339E+002, 1.9164648E-002, 2.8994808E-002
 3.7001000E+002, 3.8948792E+002, 1.9299520E-002, 2.8927464E-002
 3.7501000E+002, 3.8941132E+002, 1.9265324E-002, 2.8859809E-002
 3.8001000E+002, 3.8929379E+002, 1.9208368E-002, 2.8792169E-002
 3.8501000E+002, 3.8935858E+002, 1.9233396E-002, 2.8724877E-002
 3.9001000E+002, 3.8946155E+002, 1.9202059E-002, 2.8657340E-002
 3.9501000E+002, 3.9003748E+002, 1.9345354E-002, 2.8589772E-002
 4.0001000E+002, 3.8970914E+002, 1.9260323E-002, 2.8522070E-002
 4.0501000E+002, 3.8992191E+002, 1.9267559E-002, 2.8454326E-002
 4.1001000E+002, 3.9037735E+002, 1.9372134E-002, 2.8386749E-002
 4.1501000E+002, 3.9028793E+002, 1.9345883E-002, 2.8318699E-002
 4.2001000E+002, 3.8941568E+002, 1.9084299E-002, 2.8250974E-002
 4.2501000E+002, 3.8815262E+002, 1.9207356E-002, 2.8184382E-002
 4.3001000E+002, 3.8852780E+002, 1.9357124E-002, 2.8116442E-002
 4.3501000E+002, 3.8908981E+002, 1.9521065E-002, 2.8048299E-002
 4.4001000E+002, 3.8908548E+002, 1.9475052E-002, 2.7979853E-002
 4.4501000E+002, 3.8972986E+002, 1.9604404E-002, 2.7911277E-002
 4.5001000E+002, 3.8944568E+002, 1.9519616E-002, 2.7842704E-002
 4.5501000E+002, 3.8980374E+002, 1.9525586E-002, 2.7774043E-002
 4.6001000E+002, 3.8966803E+002, 1.9477006E-002, 2.7705777E-002
 4.6501000E+002, 3.9024478E+002, 1.9536089E-002, 2.7637227E-002
 4.7001000E+002, 3.9012140E+002, 1.9489486E-002, 2.7568813E-002
 4.7501000E+002, 3.9039584E+002, 1.9479472E-002, 2.7500430E-002
 4.8001000E+002, 3.9065887E+002, 1.9483987E-002, 2.7432078E-002
 4.8501000E+002, 3.9083817E+002, 1.9508725E-002, 2.7363695E-002
 4.9001000E+002, 3.9145081E+002, 1.9563600E-002, 2.7295139E-002
 4.9501000E+002, 3.9130481E+002, 1.9550445E-002, 2.7226543E-002
 5.0001000E+002, 3.9148523E+002, 1.9465897E-002, 2.7157987E-002
 5.0501000E+002, 3.9187234E+002, 1.9528653E-002, 2.7089715E-002
 5.1001000E+002, 3.9209918E+002, 1.9523872E-002, 2.7021075E-002
 5.1501000E+002, 3.9090292E+002, 1.9351285E-002, 2.6952708E-002
 5.2001000E+002, 3.8925827E+002, 1.9492608E-002, 2.6884893E-002
 5.2501000E+002, 3.8999063E+002, 1.9582853E-002, 2.6816176E-002
 5.3001000E+002, 3.8988821E+002, 1.9530175E-002, 2.6747623E-002
 5.3501000E+002, 3.9102805E+002, 1.9622527E-002, 2.6678950E-002
 5.4001000E+002, 3.9103098E+002, 1.9624604E-002, 2.6610037E-002
 5.4501000E+002, 3.9156464E+002, 1.9550446E-002, 2.6541332E-002
 5.5001000E+002, 3.9168524E+002, 1.9457771E-002, 2.6472902E-002
 5.5501000E+002, 3.9258737E+002, 1.9556003E-002, 2.6404448E-002
 5.6001000E+002, 3.9299829E+002, 1.9505119E-002, 2.6335888E-002
 5.6501000E+002, 3.9093381E+002, 1.9348519E-002, 2.6267821E-002
 5.7001000E+002, 3.9160333E+002, 1.9368006E-002, 2.6199838E-002
 5.7501000E+002, 3.9268719E+002, 1.9384770E-002, 2.6131799E-002
 5.8001000E+002, 3.9299036E+002, 1.9333176E-002, 2.6063900E-002
 5.8501000E+002, 3.9393039E+002, 1.9254578E-002, 2.5996162E-002
 5.9001000E+002, 3.9502463E+002, 1.9178022E-002, 2.5928812E-002
 5.9501000E+002, 3.9612463E+002, 1.9247875E-002, 2.5861388E-002
 6.0001000E+002, 3.9689865E+002, 1.9079419E-002, 2.5794053E-002
 6.0501000E+002, 3.9834705E+002, 1.9005932E-002, 2.5727339E-002
 6.1001000E+002, 3.9859085E+002, 1.8818051E-002, 2.5660856E-002
 6.1501000E+002, 3.9811176E+002, 1.8585071E-002, 2.5595412E-002
 6.2001000E+002, 4.0056723E+002, 1.8504955E-002, 2.5530197E-002
 6.2501000E+002, 4.0294455E+002, 1.8181814E-002, 2.5465891E-002
 6.3001000E+002, 4.0600720E+002, 1.7955063E-002, 2.5402483E-002
 6.3501000E+002, 4.0879684E+002, 1.7438363E-002, 2.5340153E-002
 6.4001000E+002, 4.1097968E+002, 1.6475212E-002, 2.5280882E-002
 6.4501000E+002, 4.1658237E+002, 1.6082760E-002, 2.5223682E-002
 6.5001000E+002, 4.2245197E+002, 1.5104057E-002, 2.5168795E-002
 6.5501000E+002, 4.3037518E+002, 1.4018568E-002, 2.5117647E-002
 6.6001000E+002, 4.4010727E+002, 1.2092227E-002, 2.5071606E-002
 6.6501000E+002, 4.5537448E+002, 9.4804130E-003, 2.5033448E-002
 6.7001000E+002, 4.9638437E+002, 4.7908383E-003, 2.5006833E-002
 6.7501000E+002, 5.5849445E+002, 0.0000000E+000, 2.5000000E-002
 6.8001000E+002, 5.6495294E+002, 0.0000000E+000, 2.5000000E-002
 6.8501000E+002, 5.6941779E+002, 0.0000000E+000, 2.5000000E-002
 6.9001000E+002, 5.7296527E+002, 0.0000000E+000, 2.5000000E-002
 6.9501000E+002, 5.7393469E+002, 0.0000000E+000, 2.5000000E-002
 7.0001000E+002, 5.7460907E+002, 0.0000000E+000, 2.5000000E-002
 7.0501000E+002, 5.7863000E+002, 0.0000000E+000, 2.5000000E-002
 7.1001000E+002, 5.7833746E+002, 0.0000000E+000, 2.5000000E-002
 7.1501000E+002, 5.7980566E+002, 0.0000000E+000, 2.5000000E-002
 7.2001000E+002, 5.8203015E+002, 0.0000000E+000, 2.5000000E-002
 7.2501000E+002, 5.8116492E+002, 0.0000000E+000, 2.5000000E-002
 7.3001000E+002, 5.8457898E+002, 0.0000000E+000, 2.5000000E-002
 7.3501000E+002, 5.8151813E+002, 0.0000000E+000, 2.5000000E-002
 7.4001000E+002, 5.8370038E+002, 0.0000000E+000, 2.5000000E-002
 7.4501000E+002, 5.8234631E+002, 0.0000000E+000, 2.5000000E-002
 7.5001000E+002, 5.8336865E+002, 0.0000000E+000, 2.5000000E-002
 7.5501000E+002, 5.8438977E+002, 0.0000000E+000, 2.5000000E-002
 7.6001000E+002, 5.8314270E+002, 0.0000000E+000, 2.5000000E-002
 7.6501000E+002, 5.8584253E+002, 0.0000000E+000, 2.5000000E-002
 7.7001000E+002, 5.8669421E+002, 0.0000000E+000, 2.5000000E-002
 7.7501000E+002, 5.8517706E+002, 0.0000000E+000, 2.5000000E-002
 7.8001000E+002, 5.8620575E+002, 0.0000000E+000, 2.5000000E-002
 7.8501000E+002, 5.8514032E+002, 0.0000000E+000, 2.5000000E-002
 7.9001000E+002, 5.8766394E+002, 0.0000000E+000, 2.5000000E-002
 7.9501000E+002, 5.8523578E+002, 0.0000000E+000, 2.5000000E-002
 8.0001000E+002, 5.8518213E+002, 0.0000000E+000, 2.5000000E-002
