s,kW,C,kg/m2/s,m,kW/m2
Time,"HRR","temp","MLR","thick","flux"
 0.000E+000, 0.000E+000, 2.000E+001, 0.000E+000, 2.390E-002,-4.653E-011
 2.012E+000, 0.000E+000, 6.014E+001, 2.353E-026, 2.390E-002, 7.505E+001
 4.010E+000, 0.000E+000, 1.195E+002, 5.113E-021, 2.390E-002, 7.530E+001
 6.011E+000, 0.000E+000, 1.639E+002, 1.409E-017, 2.390E-002, 7.546E+001
 8.002E+000, 0.000E+000, 2.003E+002, 3.976E-015, 2.390E-002, 7.552E+001
 1.000E+001, 5.853E-011, 2.321E+002, 3.259E-013, 2.390E-002, 7.579E+001
 1.200E+001, 1.502E-007, 2.603E+002, 1.109E-011, 2.390E-002, 7.596E+001
 1.401E+001, 2.750E-006, 2.852E+002, 1.935E-010, 2.390E-002, 7.598E+001
 1.601E+001, 3.042E-005, 3.070E+002, 2.041E-009, 2.390E-002, 7.593E+001
 1.800E+001, 2.306E-004, 3.280E+002, 1.616E-008, 2.390E-002, 7.632E+001
 2.000E+001, 1.312E-003, 3.466E+002, 9.396E-008, 2.390E-002, 7.627E+001
 2.201E+001, 6.001E-003, 3.638E+002, 4.352E-007, 2.390E-002, 7.647E+001
 2.401E+001, 2.279E-002, 3.798E+002, 1.696E-006, 2.390E-002, 7.646E+001
 2.601E+001, 7.416E-002, 3.946E+002, 5.588E-006, 2.390E-002, 7.674E+001
 2.801E+001, 2.125E-001, 4.085E+002, 1.659E-005, 2.390E-002, 7.685E+001
 3.000E+001, 5.485E-001, 4.216E+002, 4.411E-005, 2.390E-002, 7.716E+001
 3.201E+001, 1.303E+000, 4.343E+002, 1.098E-004, 2.390E-002, 7.772E+001
 3.401E+001, 2.909E+000, 4.475E+002, 2.708E-004, 2.390E-002, 7.888E+001
 3.600E+001, 6.249E+000, 4.613E+002, 6.682E-004, 2.390E-002, 8.091E+001
 3.800E+001, 1.364E+001, 4.794E+002, 2.047E-003, 2.390E-002, 8.972E+001
 4.000E+001, 3.321E+001, 5.052E+002, 8.676E-003, 2.390E-002, 1.043E+002
 4.200E+001, 8.273E+001, 5.206E+002, 1.818E-002, 2.390E-002, 1.049E+002
 4.400E+001, 1.761E+002, 5.263E+002, 2.214E-002, 2.390E-002, 1.049E+002
 4.600E+001, 2.917E+002, 5.299E+002, 2.299E-002, 2.390E-002, 1.037E+002
 4.800E+001, 3.992E+002, 5.351E+002, 2.402E-002, 2.390E-002, 1.065E+002
 5.000E+001, 4.701E+002, 5.402E+002, 2.384E-002, 2.390E-002, 1.072E+002
 5.200E+001, 4.948E+002, 5.462E+002, 2.281E-002, 2.390E-002, 1.055E+002
 5.400E+001, 4.985E+002, 5.544E+002, 2.120E-002, 2.390E-002, 1.070E+002
 5.600E+001, 4.721E+002, 5.655E+002, 1.983E-002, 2.390E-002, 1.075E+002
 5.800E+001, 4.531E+002, 5.758E+002, 1.951E-002, 2.390E-002, 1.083E+002
 6.000E+001, 4.459E+002, 5.828E+002, 2.144E-002, 2.390E-002, 1.106E+002
 6.200E+001, 4.398E+002, 5.874E+002, 2.269E-002, 2.390E-002, 1.123E+002
 6.400E+001, 4.345E+002, 5.908E+002, 2.263E-002, 2.390E-002, 1.113E+002
 6.600E+001, 4.147E+002, 5.928E+002, 2.061E-002, 2.390E-002, 1.087E+002
 6.800E+001, 4.027E+002, 5.995E+002, 1.945E-002, 2.390E-002, 1.097E+002
 7.000E+001, 3.880E+002, 6.092E+002, 1.870E-002, 2.390E-002, 1.109E+002
 7.200E+001, 3.763E+002, 6.143E+002, 1.819E-002, 2.390E-002, 1.087E+002
 7.400E+001, 3.888E+002, 6.202E+002, 1.950E-002, 2.390E-002, 1.110E+002
 7.600E+001, 3.863E+002, 6.211E+002, 1.977E-002, 2.390E-002, 1.096E+002
 7.800E+001, 3.890E+002, 6.272E+002, 2.062E-002, 2.390E-002, 1.125E+002
 8.000E+001, 3.880E+002, 6.276E+002, 1.977E-002, 2.390E-002, 1.098E+002
 8.200E+001, 3.679E+002, 6.349E+002, 1.933E-002, 2.390E-002, 1.136E+002
 8.400E+001, 3.564E+002, 6.390E+002, 1.856E-002, 2.390E-002, 1.105E+002
 8.600E+001, 3.558E+002, 6.458E+002, 1.758E-002, 2.390E-002, 1.123E+002
 8.800E+001, 3.510E+002, 6.487E+002, 1.739E-002, 2.390E-002, 1.116E+002
 9.000E+001, 3.500E+002, 6.560E+002, 1.901E-002, 2.390E-002, 1.132E+002
 9.200E+001, 3.522E+002, 6.523E+002, 1.847E-002, 2.390E-002, 1.095E+002
 9.400E+001, 3.522E+002, 6.565E+002, 1.845E-002, 2.390E-002, 1.121E+002
 9.600E+001, 3.455E+002, 6.580E+002, 1.826E-002, 2.390E-002, 1.097E+002
 9.800E+001, 3.474E+002, 6.605E+002, 1.740E-002, 2.390E-002, 1.108E+002
 1.000E+002, 3.379E+002, 6.649E+002, 1.695E-002, 2.390E-002, 1.107E+002
 1.020E+002, 3.380E+002, 6.736E+002, 1.685E-002, 2.390E-002, 1.144E+002
 1.040E+002, 3.362E+002, 6.749E+002, 1.661E-002, 2.390E-002, 1.119E+002
 1.060E+002, 3.340E+002, 6.824E+002, 1.726E-002, 2.390E-002, 1.156E+002
 1.080E+002, 3.361E+002, 6.834E+002, 1.799E-002, 2.390E-002, 1.130E+002
 1.100E+002, 3.333E+002, 6.827E+002, 1.758E-002, 2.390E-002, 1.129E+002
 1.120E+002, 3.237E+002, 6.838E+002, 1.721E-002, 2.390E-002, 1.119E+002
 1.140E+002, 3.178E+002, 6.857E+002, 1.687E-002, 2.390E-002, 1.122E+002
 1.160E+002, 3.157E+002, 6.893E+002, 1.658E-002, 2.390E-002, 1.118E+002
 1.180E+002, 3.144E+002, 6.910E+002, 1.589E-002, 2.390E-002, 1.121E+002
 1.200E+002, 3.080E+002, 6.954E+002, 1.558E-002, 2.390E-002, 1.126E+002
 1.220E+002, 3.096E+002, 6.945E+002, 1.518E-002, 2.390E-002, 1.110E+002
 1.240E+002, 3.073E+002, 6.972E+002, 1.537E-002, 2.390E-002, 1.113E+002
 1.260E+002, 3.036E+002, 6.997E+002, 1.579E-002, 2.390E-002, 1.104E+002
 1.280E+002, 3.007E+002, 6.978E+002, 1.542E-002, 2.390E-002, 1.098E+002
 1.300E+002, 2.976E+002, 6.990E+002, 1.538E-002, 2.390E-002, 1.096E+002
 1.320E+002, 2.968E+002, 7.018E+002, 1.523E-002, 2.390E-002, 1.110E+002
 1.340E+002, 2.908E+002, 6.999E+002, 1.482E-002, 2.390E-002, 1.077E+002
 1.360E+002, 2.912E+002, 7.012E+002, 1.435E-002, 2.390E-002, 1.080E+002
 1.380E+002, 2.836E+002, 7.045E+002, 1.409E-002, 2.390E-002, 1.089E+002
 1.400E+002, 2.879E+002, 7.088E+002, 1.394E-002, 2.390E-002, 1.115E+002
 1.420E+002, 2.882E+002, 7.119E+002, 1.413E-002, 2.390E-002, 1.120E+002
 1.440E+002, 2.924E+002, 7.245E+002, 1.509E-002, 2.390E-002, 1.173E+002
 1.460E+002, 2.881E+002, 7.206E+002, 1.559E-002, 2.390E-002, 1.114E+002
 1.480E+002, 2.921E+002, 7.208E+002, 1.525E-002, 2.390E-002, 1.127E+002
 1.500E+002, 2.895E+002, 7.239E+002, 1.531E-002, 2.390E-002, 1.146E+002
 1.520E+002, 2.822E+002, 7.212E+002, 1.518E-002, 2.390E-002, 1.099E+002
 1.540E+002, 2.827E+002, 7.214E+002, 1.458E-002, 2.390E-002, 1.114E+002
 1.560E+002, 2.802E+002, 7.257E+002, 1.438E-002, 2.390E-002, 1.133E+002
 1.580E+002, 2.763E+002, 7.290E+002, 1.433E-002, 2.390E-002, 1.144E+002
 1.600E+002, 2.772E+002, 7.311E+002, 1.433E-002, 2.390E-002, 1.129E+002
 1.620E+002, 2.782E+002, 7.321E+002, 1.427E-002, 2.390E-002, 1.131E+002
 1.640E+002, 2.788E+002, 7.317E+002, 1.422E-002, 2.390E-002, 1.126E+002
 1.660E+002, 2.778E+002, 7.366E+002, 1.431E-002, 2.390E-002, 1.152E+002
 1.680E+002, 2.733E+002, 7.368E+002, 1.474E-002, 2.390E-002, 1.114E+002
 1.700E+002, 2.747E+002, 7.340E+002, 1.443E-002, 2.390E-002, 1.120E+002
 1.720E+002, 2.716E+002, 7.376E+002, 1.432E-002, 2.390E-002, 1.126E+002
 1.740E+002, 2.725E+002, 7.345E+002, 1.414E-002, 2.390E-002, 1.102E+002
 1.760E+002, 2.704E+002, 7.381E+002, 1.393E-002, 2.390E-002, 1.123E+002
 1.780E+002, 2.697E+002, 7.402E+002, 1.385E-002, 2.390E-002, 1.126E+002
 1.800E+002, 2.692E+002, 7.389E+002, 1.371E-002, 2.390E-002, 1.105E+002
 1.820E+002, 2.652E+002, 7.394E+002, 1.346E-002, 2.390E-002, 1.110E+002
 1.840E+002, 2.674E+002, 7.434E+002, 1.342E-002, 2.390E-002, 1.131E+002
 1.860E+002, 2.644E+002, 7.477E+002, 1.376E-002, 2.390E-002, 1.134E+002
 1.880E+002, 2.707E+002, 7.450E+002, 1.388E-002, 2.390E-002, 1.115E+002
 1.900E+002, 2.666E+002, 7.445E+002, 1.385E-002, 2.390E-002, 1.099E+002
 1.920E+002, 2.664E+002, 7.468E+002, 1.371E-002, 2.390E-002, 1.130E+002
 1.940E+002, 2.649E+002, 7.481E+002, 1.382E-002, 2.390E-002, 1.115E+002
 1.960E+002, 2.670E+002, 7.510E+002, 1.389E-002, 2.390E-002, 1.127E+002
 1.980E+002, 2.704E+002, 7.528E+002, 1.390E-002, 2.390E-002, 1.146E+002
 2.000E+002, 2.668E+002, 7.551E+002, 1.393E-002, 2.390E-002, 1.133E+002
 2.020E+002, 2.653E+002, 7.537E+002, 1.385E-002, 2.390E-002, 1.123E+002
 2.040E+002, 2.655E+002, 7.532E+002, 1.361E-002, 2.390E-002, 1.111E+002
 2.060E+002, 2.654E+002, 7.582E+002, 1.361E-002, 2.390E-002, 1.147E+002
 2.080E+002, 2.680E+002, 7.583E+002, 1.376E-002, 2.390E-002, 1.136E+002
 2.100E+002, 2.653E+002, 7.590E+002, 1.385E-002, 2.390E-002, 1.122E+002
 2.120E+002, 2.686E+002, 7.566E+002, 1.383E-002, 2.390E-002, 1.112E+002
 2.140E+002, 2.678E+002, 7.608E+002, 1.379E-002, 2.390E-002, 1.140E+002
 2.160E+002, 2.676E+002, 7.598E+002, 1.393E-002, 2.390E-002, 1.117E+002
 2.180E+002, 2.659E+002, 7.641E+002, 1.389E-002, 2.390E-002, 1.150E+002
 2.200E+002, 2.692E+002, 7.631E+002, 1.400E-002, 2.390E-002, 1.121E+002
 2.220E+002, 2.683E+002, 7.633E+002, 1.386E-002, 2.390E-002, 1.134E+002
 2.240E+002, 2.676E+002, 7.643E+002, 1.377E-002, 2.390E-002, 1.126E+002
 2.260E+002, 2.677E+002, 7.678E+002, 1.378E-002, 2.390E-002, 1.143E+002
 2.280E+002, 2.670E+002, 7.658E+002, 1.382E-002, 2.390E-002, 1.118E+002
 2.300E+002, 2.692E+002, 7.678E+002, 1.377E-002, 2.390E-002, 1.141E+002
 2.320E+002, 2.701E+002, 7.697E+002, 1.388E-002, 2.390E-002, 1.141E+002
 2.340E+002, 2.689E+002, 7.730E+002, 1.402E-002, 2.390E-002, 1.153E+002
 2.360E+002, 2.710E+002, 7.704E+002, 1.420E-002, 2.390E-002, 1.124E+002
 2.380E+002, 2.730E+002, 7.733E+002, 1.418E-002, 2.390E-002, 1.147E+002
 2.400E+002, 2.697E+002, 7.764E+002, 1.427E-002, 2.390E-002, 1.160E+002
 2.420E+002, 2.725E+002, 7.745E+002, 1.433E-002, 2.390E-002, 1.140E+002
 2.440E+002, 2.702E+002, 7.776E+002, 1.428E-002, 2.390E-002, 1.151E+002
 2.460E+002, 2.723E+002, 7.745E+002, 1.426E-002, 2.390E-002, 1.127E+002
 2.480E+002, 2.701E+002, 7.772E+002, 1.414E-002, 2.390E-002, 1.139E+002
 2.500E+002, 2.723E+002, 7.762E+002, 1.415E-002, 2.390E-002, 1.131E+002
 2.520E+002, 2.752E+002, 7.774E+002, 1.413E-002, 2.390E-002, 1.140E+002
 2.540E+002, 2.735E+002, 7.772E+002, 1.418E-002, 2.390E-002, 1.128E+002
 2.560E+002, 2.761E+002, 7.760E+002, 1.420E-002, 2.390E-002, 1.117E+002
 2.580E+002, 2.755E+002, 7.758E+002, 1.415E-002, 2.390E-002, 1.114E+002
 2.600E+002, 2.758E+002, 7.790E+002, 1.416E-002, 2.390E-002, 1.135E+002
 2.620E+002, 2.762E+002, 7.785E+002, 1.425E-002, 2.390E-002, 1.122E+002
 2.640E+002, 2.781E+002, 7.808E+002, 1.427E-002, 2.390E-002, 1.130E+002
 2.660E+002, 2.762E+002, 7.795E+002, 1.431E-002, 2.390E-002, 1.123E+002
 2.680E+002, 2.804E+002, 7.772E+002, 1.426E-002, 2.390E-002, 1.097E+002
 2.700E+002, 2.784E+002, 7.789E+002, 1.417E-002, 2.390E-002, 1.122E+002
 2.720E+002, 2.777E+002, 7.806E+002, 1.414E-002, 2.390E-002, 1.120E+002
 2.740E+002, 2.820E+002, 7.823E+002, 1.421E-002, 2.390E-002, 1.129E+002
 2.760E+002, 2.772E+002, 7.837E+002, 1.432E-002, 2.390E-002, 1.127E+002
 2.780E+002, 2.855E+002, 7.827E+002, 1.443E-002, 2.390E-002, 1.114E+002
 2.800E+002, 2.823E+002, 7.876E+002, 1.450E-002, 2.390E-002, 1.153E+002
 2.820E+002, 2.845E+002, 7.899E+002, 1.468E-002, 2.390E-002, 1.154E+002
 2.840E+002, 2.855E+002, 7.858E+002, 1.484E-002, 2.390E-002, 1.104E+002
 2.860E+002, 2.865E+002, 7.857E+002, 1.481E-002, 2.390E-002, 1.121E+002
 2.880E+002, 2.872E+002, 7.856E+002, 1.473E-002, 2.390E-002, 1.114E+002
 2.900E+002, 2.886E+002, 7.874E+002, 1.469E-002, 2.390E-002, 1.129E+002
 2.920E+002, 2.894E+002, 7.876E+002, 1.471E-002, 2.390E-002, 1.119E+002
 2.940E+002, 2.914E+002, 7.876E+002, 1.475E-002, 2.390E-002, 1.113E+002
 2.960E+002, 2.893E+002, 7.882E+002, 1.477E-002, 2.390E-002, 1.110E+002
 2.980E+002, 2.915E+002, 7.864E+002, 1.480E-002, 2.390E-002, 1.104E+002
 3.000E+002, 2.927E+002, 7.900E+002, 1.479E-002, 2.390E-002, 1.137E+002
 3.020E+002, 2.942E+002, 7.916E+002, 1.486E-002, 2.390E-002, 1.135E+002
 3.040E+002, 2.944E+002, 7.913E+002, 1.499E-002, 2.390E-002, 1.117E+002
 3.060E+002, 2.943E+002, 7.907E+002, 1.508E-002, 2.390E-002, 1.108E+002
 3.080E+002, 2.997E+002, 7.894E+002, 1.509E-002, 2.390E-002, 1.112E+002
 3.100E+002, 2.944E+002, 7.929E+002, 1.506E-002, 2.390E-002, 1.127E+002
 3.120E+002, 2.975E+002, 7.932E+002, 1.511E-002, 2.390E-002, 1.124E+002
 3.140E+002, 2.969E+002, 7.956E+002, 1.518E-002, 2.390E-002, 1.137E+002
 3.160E+002, 2.986E+002, 7.969E+002, 1.526E-002, 2.390E-002, 1.136E+002
 3.180E+002, 3.009E+002, 8.013E+002, 1.536E-002, 2.390E-002, 1.172E+002
 3.200E+002, 2.985E+002, 8.037E+002, 1.553E-002, 2.390E-002, 1.160E+002
 3.220E+002, 3.030E+002, 8.008E+002, 1.573E-002, 2.390E-002, 1.140E+002
 3.240E+002, 3.036E+002, 7.998E+002, 1.579E-002, 2.390E-002, 1.127E+002
 3.260E+002, 2.980E+002, 7.999E+002, 1.579E-002, 2.390E-002, 1.122E+002
 3.280E+002, 3.091E+002, 7.985E+002, 1.577E-002, 2.390E-002, 1.125E+002
 3.300E+002, 3.041E+002, 8.012E+002, 1.573E-002, 2.390E-002, 1.142E+002
 3.320E+002, 3.051E+002, 7.971E+002, 1.573E-002, 2.390E-002, 1.099E+002
 3.340E+002, 3.059E+002, 7.985E+002, 1.568E-002, 2.390E-002, 1.122E+002
 3.360E+002, 3.062E+002, 8.002E+002, 1.564E-002, 2.390E-002, 1.127E+002
 3.380E+002, 3.053E+002, 8.014E+002, 1.567E-002, 2.390E-002, 1.129E+002
 3.400E+002, 3.097E+002, 8.001E+002, 1.571E-002, 2.390E-002, 1.116E+002
 3.420E+002, 3.109E+002, 8.034E+002, 1.574E-002, 2.390E-002, 1.144E+002
 3.440E+002, 3.072E+002, 8.048E+002, 1.580E-002, 2.390E-002, 1.135E+002
 3.460E+002, 3.097E+002, 7.995E+002, 1.589E-002, 2.390E-002, 1.097E+002
 3.480E+002, 3.116E+002, 8.015E+002, 1.587E-002, 2.390E-002, 1.118E+002
 3.500E+002, 3.128E+002, 8.043E+002, 1.583E-002, 2.390E-002, 1.133E+002
 3.520E+002, 3.115E+002, 8.048E+002, 1.587E-002, 2.390E-002, 1.130E+002
 3.540E+002, 3.120E+002, 8.016E+002, 1.591E-002, 2.390E-002, 1.106E+002
 3.560E+002, 3.166E+002, 8.061E+002, 1.588E-002, 2.390E-002, 1.142E+002
 3.580E+002, 3.083E+002, 8.046E+002, 1.589E-002, 2.390E-002, 1.109E+002
 3.600E+002, 3.145E+002, 8.071E+002, 1.592E-002, 2.390E-002, 1.132E+002
 3.620E+002, 3.166E+002, 8.047E+002, 1.594E-002, 2.390E-002, 1.110E+002
 3.640E+002, 3.155E+002, 8.072E+002, 1.594E-002, 2.390E-002, 1.139E+002
 3.660E+002, 3.152E+002, 8.122E+002, 1.594E-002, 2.390E-002, 1.164E+002
 3.680E+002, 3.142E+002, 8.111E+002, 1.601E-002, 2.390E-002, 1.137E+002
 3.700E+002, 3.167E+002, 8.115E+002, 1.609E-002, 2.390E-002, 1.144E+002
 3.720E+002, 3.141E+002, 8.164E+002, 1.611E-002, 2.390E-002, 1.176E+002
 3.740E+002, 3.182E+002, 8.132E+002, 1.617E-002, 2.390E-002, 1.133E+002
 3.760E+002, 3.151E+002, 8.126E+002, 1.621E-002, 2.390E-002, 1.133E+002
 3.780E+002, 3.183E+002, 8.114E+002, 1.618E-002, 2.390E-002, 1.127E+002
 3.800E+002, 3.164E+002, 8.121E+002, 1.611E-002, 2.390E-002, 1.133E+002
 3.820E+002, 3.152E+002, 8.114E+002, 1.604E-002, 2.390E-002, 1.125E+002
 3.840E+002, 3.173E+002, 8.085E+002, 1.598E-002, 2.390E-002, 1.099E+002
 3.860E+002, 3.185E+002, 8.111E+002, 1.590E-002, 2.390E-002, 1.129E+002
 3.880E+002, 3.119E+002, 8.099E+002, 1.582E-002, 2.390E-002, 1.110E+002
 3.900E+002, 3.168E+002, 8.085E+002, 1.577E-002, 2.390E-002, 1.103E+002
 3.920E+002, 3.182E+002, 8.080E+002, 1.570E-002, 2.390E-002, 1.101E+002
 3.940E+002, 3.143E+002, 8.096E+002, 1.561E-002, 2.390E-002, 1.118E+002
 3.960E+002, 3.134E+002, 8.126E+002, 1.554E-002, 2.390E-002, 1.130E+002
 3.980E+002, 3.129E+002, 8.146E+002, 1.551E-002, 2.390E-002, 1.138E+002
 4.000E+002, 3.121E+002, 8.158E+002, 1.552E-002, 2.390E-002, 1.139E+002
 4.020E+002, 3.137E+002, 8.147E+002, 1.553E-002, 2.390E-002, 1.120E+002
 4.040E+002, 3.136E+002, 8.119E+002, 1.553E-002, 2.390E-002, 1.106E+002
 4.060E+002, 3.120E+002, 8.182E+002, 1.548E-002, 2.389E-002, 1.160E+002
 4.080E+002, 3.135E+002, 8.166E+002, 1.543E-002, 2.389E-002, 1.123E+002
 4.100E+002, 3.133E+002, 8.145E+002, 1.543E-002, 2.389E-002, 1.122E+002
 4.120E+002, 3.090E+002, 8.199E+002, 1.539E-002, 2.389E-002, 1.151E+002
 4.140E+002, 3.119E+002, 8.182E+002, 1.535E-002, 2.389E-002, 1.130E+002
 4.160E+002, 3.093E+002, 8.159E+002, 1.533E-002, 2.389E-002, 1.112E+002
 4.180E+002, 3.134E+002, 8.177E+002, 1.528E-002, 2.389E-002, 1.137E+002
 4.200E+002, 3.054E+002, 8.207E+002, 1.521E-002, 2.389E-002, 1.142E+002
 4.220E+002, 3.099E+002, 8.217E+002, 1.517E-002, 2.389E-002, 1.157E+002
 4.240E+002, 3.080E+002, 8.220E+002, 1.514E-002, 2.389E-002, 1.136E+002
 4.260E+002, 3.082E+002, 8.223E+002, 1.513E-002, 2.389E-002, 1.163E+002
 4.280E+002, 3.056E+002, 8.234E+002, 1.509E-002, 2.389E-002, 1.141E+002
 4.300E+002, 3.032E+002, 8.224E+002, 1.507E-002, 2.389E-002, 1.125E+002
 4.320E+002, 3.070E+002, 8.183E+002, 1.504E-002, 2.389E-002, 1.112E+002
 4.340E+002, 3.054E+002, 8.239E+002, 1.496E-002, 2.389E-002, 1.160E+002
 4.360E+002, 3.044E+002, 8.255E+002, 1.488E-002, 2.389E-002, 1.162E+002
 4.380E+002, 2.992E+002, 8.250E+002, 1.484E-002, 2.389E-002, 1.145E+002
 4.400E+002, 3.007E+002, 8.217E+002, 1.482E-002, 2.389E-002, 1.117E+002
 4.420E+002, 3.019E+002, 8.201E+002, 1.477E-002, 2.389E-002, 1.114E+002
 4.440E+002, 3.003E+002, 8.251E+002, 1.468E-002, 2.389E-002, 1.157E+002
 4.460E+002, 2.956E+002, 8.251E+002, 1.460E-002, 2.389E-002, 1.141E+002
 4.480E+002, 3.008E+002, 8.245E+002, 1.455E-002, 2.389E-002, 1.139E+002
 4.500E+002, 2.957E+002, 8.233E+002, 1.451E-002, 2.389E-002, 1.118E+002
 4.520E+002, 2.953E+002, 8.229E+002, 1.446E-002, 2.389E-002, 1.128E+002
 4.540E+002, 2.956E+002, 8.229E+002, 1.439E-002, 2.389E-002, 1.132E+002
 4.560E+002, 2.932E+002, 8.261E+002, 1.431E-002, 2.389E-002, 1.142E+002
 4.580E+002, 2.925E+002, 8.250E+002, 1.425E-002, 2.389E-002, 1.133E+002
 4.600E+002, 2.918E+002, 8.239E+002, 1.421E-002, 2.389E-002, 1.127E+002
 4.620E+002, 2.913E+002, 8.244E+002, 1.415E-002, 2.389E-002, 1.127E+002
 4.640E+002, 2.890E+002, 8.248E+002, 1.409E-002, 2.389E-002, 1.133E+002
 4.660E+002, 2.873E+002, 8.248E+002, 1.403E-002, 2.389E-002, 1.123E+002
 4.680E+002, 2.893E+002, 8.266E+002, 1.397E-002, 2.389E-002, 1.144E+002
 4.700E+002, 2.875E+002, 8.295E+002, 1.391E-002, 2.389E-002, 1.163E+002
 4.720E+002, 2.869E+002, 8.292E+002, 1.387E-002, 2.389E-002, 1.140E+002
 4.740E+002, 2.834E+002, 8.275E+002, 1.385E-002, 2.389E-002, 1.133E+002
 4.760E+002, 2.822E+002, 8.279E+002, 1.382E-002, 2.389E-002, 1.139E+002
 4.780E+002, 2.846E+002, 8.267E+002, 1.377E-002, 2.389E-002, 1.127E+002
 4.800E+002, 2.810E+002, 8.296E+002, 1.372E-002, 2.389E-002, 1.153E+002
 4.820E+002, 2.797E+002, 8.276E+002, 1.366E-002, 2.389E-002, 1.129E+002
 4.840E+002, 2.820E+002, 8.270E+002, 1.361E-002, 2.389E-002, 1.124E+002
 4.860E+002, 2.777E+002, 8.273E+002, 1.355E-002, 2.389E-002, 1.120E+002
 4.880E+002, 2.763E+002, 8.285E+002, 1.348E-002, 2.389E-002, 1.141E+002
 4.900E+002, 2.769E+002, 8.324E+002, 1.342E-002, 2.389E-002, 1.167E+002
 4.920E+002, 2.745E+002, 8.302E+002, 1.337E-002, 2.389E-002, 1.129E+002
 4.940E+002, 2.737E+002, 8.285E+002, 1.333E-002, 2.389E-002, 1.120E+002
 4.960E+002, 2.715E+002, 8.241E+002, 1.329E-002, 2.389E-002, 1.092E+002
 4.980E+002, 2.721E+002, 8.243E+002, 1.323E-002, 2.389E-002, 1.101E+002
 5.000E+002, 2.711E+002, 8.271E+002, 1.314E-002, 2.389E-002, 1.131E+002
 5.020E+002, 2.687E+002, 8.282E+002, 1.304E-002, 2.389E-002, 1.131E+002
 5.040E+002, 2.685E+002, 8.279E+002, 1.296E-002, 2.389E-002, 1.124E+002
 5.060E+002, 2.675E+002, 8.289E+002, 1.290E-002, 2.389E-002, 1.132E+002
 5.080E+002, 2.674E+002, 8.322E+002, 1.284E-002, 2.389E-002, 1.156E+002
 5.100E+002, 2.644E+002, 8.303E+002, 1.279E-002, 2.389E-002, 1.117E+002
 5.120E+002, 2.612E+002, 8.312E+002, 1.276E-002, 2.389E-002, 1.137E+002
 5.140E+002, 2.623E+002, 8.302E+002, 1.272E-002, 2.389E-002, 1.131E+002
 5.160E+002, 2.630E+002, 8.306E+002, 1.268E-002, 2.389E-002, 1.129E+002
 5.180E+002, 2.621E+002, 8.301E+002, 1.262E-002, 2.389E-002, 1.120E+002
 5.200E+002, 2.603E+002, 8.309E+002, 1.257E-002, 2.389E-002, 1.136E+002
 5.220E+002, 2.574E+002, 8.340E+002, 1.251E-002, 2.389E-002, 1.154E+002
 5.240E+002, 2.579E+002, 8.314E+002, 1.245E-002, 2.389E-002, 1.103E+002
 5.260E+002, 2.571E+002, 8.291E+002, 1.241E-002, 2.389E-002, 1.113E+002
 5.280E+002, 2.549E+002, 8.308E+002, 1.236E-002, 2.389E-002, 1.127E+002
 5.300E+002, 2.550E+002, 8.306E+002, 1.229E-002, 2.389E-002, 1.121E+002
 5.320E+002, 2.535E+002, 8.346E+002, 1.221E-002, 2.389E-002, 1.154E+002
 5.340E+002, 2.522E+002, 8.340E+002, 1.214E-002, 2.389E-002, 1.131E+002
 5.360E+002, 2.518E+002, 8.307E+002, 1.209E-002, 2.389E-002, 1.116E+002
 5.380E+002, 2.496E+002, 8.379E+002, 1.203E-002, 2.389E-002, 1.174E+002
 5.400E+002, 2.484E+002, 8.356E+002, 1.197E-002, 2.389E-002, 1.132E+002
 5.420E+002, 2.465E+002, 8.317E+002, 1.192E-002, 2.389E-002, 1.104E+002
 5.440E+002, 2.459E+002, 8.285E+002, 1.187E-002, 2.389E-002, 1.092E+002
 5.460E+002, 2.475E+002, 8.292E+002, 1.180E-002, 2.389E-002, 1.107E+002
 5.480E+002, 2.441E+002, 8.291E+002, 1.170E-002, 2.389E-002, 1.099E+002
 5.500E+002, 2.438E+002, 8.312E+002, 1.159E-002, 2.389E-002, 1.130E+002
