s,kW,C,kg/m2/s,m,kW/m2
Time,"HRR","temp","MLR","thick","flux"
 0.000E+000, 0.000E+000, 2.000E+001, 0.000E+000, 2.040E-002,-4.653E-011
 2.012E+000, 0.000E+000, 4.696E+001, 3.480E-029, 2.040E-002, 5.003E+001
 4.003E+000, 0.000E+000, 8.666E+001, 5.906E-025, 2.040E-002, 5.017E+001
 6.003E+000, 0.000E+000, 1.166E+002, 5.054E-022, 2.040E-002, 5.029E+001
 8.007E+000, 0.000E+000, 1.415E+002, 7.892E-020, 2.040E-002, 5.034E+001
 1.001E+001, 0.000E+000, 1.631E+002, 4.357E-018, 2.040E-002, 5.041E+001
 1.201E+001, 0.000E+000, 1.823E+002, 1.181E-016, 2.040E-002, 5.047E+001
 1.401E+001, 0.000E+000, 1.996E+002, 1.885E-015, 2.040E-002, 5.055E+001
 1.601E+001, 0.000E+000, 2.157E+002, 2.120E-014, 2.040E-002, 5.071E+001
 1.800E+001, 0.000E+000, 2.306E+002, 1.732E-013, 2.040E-002, 5.079E+001
 2.001E+001, 2.524E-009, 2.439E+002, 1.057E-012, 2.040E-002, 5.072E+001
 2.200E+001, 5.550E-008, 2.562E+002, 5.223E-012, 2.040E-002, 5.077E+001
 2.400E+001, 3.081E-007, 2.686E+002, 2.335E-011, 2.040E-002, 5.103E+001
 2.601E+001, 1.133E-006, 2.795E+002, 8.670E-011, 2.040E-002, 5.091E+001
 2.800E+001, 3.719E-006, 2.903E+002, 2.887E-010, 2.040E-002, 5.114E+001
 3.001E+001, 1.103E-005, 3.001E+002, 8.654E-010, 2.040E-002, 5.108E+001
 3.200E+001, 2.962E-005, 3.095E+002, 2.340E-009, 2.040E-002, 5.119E+001
 3.400E+001, 7.288E-005, 3.184E+002, 5.897E-009, 2.040E-002, 5.121E+001
 3.601E+001, 1.681E-004, 3.269E+002, 1.378E-008, 2.040E-002, 5.132E+001
 3.801E+001, 3.638E-004, 3.349E+002, 3.052E-008, 2.040E-002, 5.129E+001
 4.000E+001, 7.436E-004, 3.426E+002, 6.323E-008, 2.040E-002, 5.142E+001
 4.201E+001, 1.451E-003, 3.505E+002, 1.299E-007, 2.040E-002, 5.154E+001
 4.401E+001, 2.711E-003, 3.578E+002, 2.526E-007, 2.040E-002, 5.162E+001
 4.600E+001, 4.860E-003, 3.644E+002, 4.593E-007, 2.040E-002, 5.157E+001
 4.801E+001, 8.412E-003, 3.709E+002, 8.088E-007, 2.040E-002, 5.167E+001
 5.001E+001, 1.410E-002, 3.767E+002, 1.359E-006, 2.040E-002, 5.159E+001
 5.201E+001, 2.294E-002, 3.818E+002, 2.141E-006, 2.040E-002, 5.145E+001
 5.400E+001, 3.626E-002, 3.865E+002, 3.246E-006, 2.040E-002, 5.132E+001
 5.601E+001, 5.591E-002, 3.911E+002, 4.779E-006, 2.040E-002, 5.127E+001
 5.800E+001, 8.449E-002, 3.961E+002, 7.156E-006, 2.040E-002, 5.135E+001
 6.000E+001, 1.252E-001, 4.010E+002, 1.048E-005, 2.040E-002, 5.156E+001
 6.200E+001, 1.822E-001, 4.062E+002, 1.566E-005, 2.040E-002, 5.161E+001
 6.400E+001, 2.608E-001, 4.105E+002, 2.235E-005, 2.040E-002, 5.154E+001
 6.601E+001, 3.681E-001, 4.150E+002, 3.124E-005, 2.040E-002, 5.175E+001
 6.800E+001, 5.124E-001, 4.199E+002, 4.486E-005, 2.040E-002, 5.192E+001
 7.001E+001, 7.048E-001, 4.240E+002, 6.184E-005, 2.040E-002, 5.184E+001
 7.200E+001, 9.590E-001, 4.279E+002, 8.288E-005, 2.040E-002, 5.190E+001
 7.400E+001, 1.293E+000, 4.325E+002, 1.143E-004, 2.040E-002, 5.220E+001
 7.600E+001, 1.730E+000, 4.373E+002, 1.589E-004, 2.040E-002, 5.257E+001
 7.800E+001, 2.306E+000, 4.422E+002, 2.203E-004, 2.040E-002, 5.307E+001
 8.000E+001, 3.060E+000, 4.472E+002, 3.115E-004, 2.040E-002, 5.331E+001
 8.201E+001, 4.045E+000, 4.510E+002, 4.108E-004, 2.040E-002, 5.342E+001
 8.401E+001, 5.365E+000, 4.563E+002, 5.699E-004, 2.040E-002, 5.438E+001
 8.600E+001, 7.143E+000, 4.638E+002, 8.841E-004, 2.040E-002, 5.623E+001
 8.800E+001, 9.606E+000, 4.711E+002, 1.385E-003, 2.040E-002, 5.733E+001
 9.000E+001, 1.312E+001, 4.783E+002, 2.117E-003, 2.040E-002, 5.898E+001
 9.200E+001, 1.867E+001, 4.901E+002, 4.027E-003, 2.040E-002, 6.955E+001
 9.400E+001, 2.874E+001, 5.049E+002, 8.649E-003, 2.040E-002, 7.544E+001
 9.600E+001, 4.388E+001, 5.134E+002, 1.286E-002, 2.040E-002, 7.909E+001
 9.800E+001, 6.403E+001, 5.195E+002, 1.648E-002, 2.040E-002, 8.186E+001
 1.000E+002, 9.050E+001, 5.222E+002, 1.739E-002, 2.040E-002, 8.054E+001
 1.020E+002, 1.192E+002, 5.266E+002, 1.911E-002, 2.040E-002, 8.481E+001
 1.040E+002, 1.540E+002, 5.293E+002, 1.967E-002, 2.040E-002, 8.429E+001
 1.060E+002, 1.933E+002, 5.324E+002, 1.973E-002, 2.040E-002, 8.526E+001
 1.080E+002, 2.278E+002, 5.355E+002, 1.946E-002, 2.040E-002, 8.408E+001
 1.100E+002, 2.630E+002, 5.391E+002, 1.898E-002, 2.040E-002, 8.456E+001
 1.120E+002, 2.916E+002, 5.450E+002, 1.954E-002, 2.040E-002, 8.697E+001
 1.140E+002, 3.147E+002, 5.486E+002, 1.830E-002, 2.040E-002, 8.488E+001
 1.160E+002, 3.252E+002, 5.541E+002, 1.789E-002, 2.040E-002, 8.607E+001
 1.180E+002, 3.338E+002, 5.577E+002, 1.741E-002, 2.040E-002, 8.456E+001
 1.200E+002, 3.353E+002, 5.607E+002, 1.726E-002, 2.040E-002, 8.378E+001
 1.220E+002, 3.444E+002, 5.672E+002, 1.829E-002, 2.040E-002, 8.841E+001
 1.240E+002, 3.456E+002, 5.709E+002, 1.916E-002, 2.040E-002, 8.732E+001
 1.260E+002, 3.492E+002, 5.709E+002, 1.777E-002, 2.040E-002, 8.551E+001
 1.280E+002, 3.495E+002, 5.802E+002, 1.922E-002, 2.040E-002, 9.103E+001
 1.300E+002, 3.439E+002, 5.788E+002, 1.780E-002, 2.040E-002, 8.440E+001
 1.320E+002, 3.421E+002, 5.818E+002, 1.699E-002, 2.040E-002, 8.539E+001
 1.340E+002, 3.351E+002, 5.920E+002, 1.859E-002, 2.040E-002, 8.982E+001
 1.360E+002, 3.362E+002, 5.906E+002, 1.746E-002, 2.040E-002, 8.751E+001
 1.380E+002, 3.298E+002, 5.924E+002, 1.795E-002, 2.040E-002, 8.510E+001
 1.400E+002, 3.281E+002, 5.947E+002, 1.758E-002, 2.040E-002, 8.641E+001
 1.420E+002, 3.306E+002, 6.014E+002, 1.871E-002, 2.040E-002, 8.874E+001
 1.440E+002, 3.255E+002, 5.990E+002, 1.752E-002, 2.040E-002, 8.521E+001
 1.460E+002, 3.224E+002, 6.008E+002, 1.703E-002, 2.040E-002, 8.540E+001
 1.480E+002, 3.296E+002, 6.076E+002, 1.776E-002, 2.040E-002, 8.717E+001
 1.500E+002, 3.233E+002, 6.058E+002, 1.688E-002, 2.040E-002, 8.387E+001
 1.520E+002, 3.294E+002, 6.112E+002, 1.720E-002, 2.040E-002, 8.650E+001
 1.540E+002, 3.337E+002, 6.120E+002, 1.727E-002, 2.040E-002, 8.530E+001
 1.560E+002, 3.334E+002, 6.163E+002, 1.768E-002, 2.040E-002, 8.678E+001
 1.580E+002, 3.304E+002, 6.183E+002, 1.786E-002, 2.040E-002, 8.686E+001
 1.600E+002, 3.307E+002, 6.215E+002, 1.819E-002, 2.040E-002, 8.638E+001
 1.620E+002, 3.357E+002, 6.211E+002, 1.779E-002, 2.040E-002, 8.522E+001
 1.640E+002, 3.352E+002, 6.243E+002, 1.763E-002, 2.040E-002, 8.638E+001
 1.660E+002, 3.438E+002, 6.260E+002, 1.754E-002, 2.040E-002, 8.638E+001
 1.680E+002, 3.390E+002, 6.325E+002, 1.829E-002, 2.040E-002, 8.771E+001
 1.700E+002, 3.373E+002, 6.276E+002, 1.751E-002, 2.040E-002, 8.331E+001
 1.720E+002, 3.412E+002, 6.332E+002, 1.767E-002, 2.040E-002, 8.677E+001
 1.740E+002, 3.423E+002, 6.364E+002, 1.808E-002, 2.040E-002, 8.759E+001
 1.760E+002, 3.502E+002, 6.380E+002, 1.857E-002, 2.040E-002, 8.544E+001
 1.780E+002, 3.485E+002, 6.345E+002, 1.794E-002, 2.040E-002, 8.279E+001
 1.800E+002, 3.430E+002, 6.352E+002, 1.737E-002, 2.040E-002, 8.425E+001
 1.820E+002, 3.436E+002, 6.402E+002, 1.786E-002, 2.040E-002, 8.471E+001
 1.840E+002, 3.460E+002, 6.437E+002, 1.810E-002, 2.040E-002, 8.565E+001
 1.860E+002, 3.521E+002, 6.455E+002, 1.805E-002, 2.040E-002, 8.695E+001
 1.880E+002, 3.543E+002, 6.481E+002, 1.855E-002, 2.040E-002, 8.529E+001
 1.900E+002, 3.530E+002, 6.462E+002, 1.824E-002, 2.040E-002, 8.384E+001
 1.920E+002, 3.551E+002, 6.480E+002, 1.822E-002, 2.040E-002, 8.404E+001
 1.940E+002, 3.651E+002, 6.539E+002, 1.848E-002, 2.040E-002, 8.907E+001
 1.960E+002, 3.601E+002, 6.616E+002, 1.950E-002, 2.040E-002, 8.973E+001
 1.980E+002, 3.655E+002, 6.603E+002, 1.970E-002, 2.040E-002, 8.752E+001
 2.000E+002, 3.712E+002, 6.666E+002, 1.980E-002, 2.040E-002, 9.135E+001
 2.020E+002, 3.718E+002, 6.648E+002, 1.987E-002, 2.040E-002, 8.748E+001
 2.040E+002, 3.652E+002, 6.682E+002, 1.989E-002, 2.040E-002, 8.856E+001
 2.060E+002, 3.710E+002, 6.663E+002, 1.967E-002, 2.040E-002, 8.749E+001
 2.080E+002, 3.645E+002, 6.662E+002, 1.953E-002, 2.040E-002, 8.619E+001
 2.100E+002, 3.736E+002, 6.647E+002, 1.931E-002, 2.040E-002, 8.519E+001
 2.120E+002, 3.683E+002, 6.697E+002, 1.936E-002, 2.040E-002, 8.751E+001
 2.140E+002, 3.750E+002, 6.684E+002, 1.947E-002, 2.040E-002, 8.625E+001
 2.160E+002, 3.741E+002, 6.712E+002, 1.944E-002, 2.040E-002, 8.626E+001
 2.180E+002, 3.750E+002, 6.686E+002, 1.931E-002, 2.040E-002, 8.348E+001
 2.200E+002, 3.744E+002, 6.711E+002, 1.908E-002, 2.040E-002, 8.640E+001
 2.220E+002, 3.784E+002, 6.768E+002, 1.935E-002, 2.040E-002, 8.806E+001
 2.240E+002, 3.743E+002, 6.785E+002, 1.975E-002, 2.040E-002, 8.678E+001
 2.260E+002, 3.771E+002, 6.736E+002, 1.951E-002, 2.040E-002, 8.388E+001
 2.280E+002, 3.820E+002, 6.762E+002, 1.926E-002, 2.040E-002, 8.624E+001
 2.300E+002, 3.774E+002, 6.793E+002, 1.936E-002, 2.040E-002, 8.644E+001
 2.320E+002, 3.824E+002, 6.799E+002, 1.951E-002, 2.040E-002, 8.459E+001
 2.340E+002, 3.808E+002, 6.761E+002, 1.919E-002, 2.040E-002, 8.309E+001
 2.360E+002, 3.795E+002, 6.779E+002, 1.887E-002, 2.040E-002, 8.430E+001
 2.380E+002, 3.777E+002, 6.784E+002, 1.888E-002, 2.040E-002, 8.334E+001
 2.400E+002, 3.834E+002, 6.821E+002, 1.876E-002, 2.040E-002, 8.635E+001
 2.420E+002, 3.803E+002, 6.829E+002, 1.896E-002, 2.040E-002, 8.422E+001
 2.440E+002, 3.774E+002, 6.846E+002, 1.886E-002, 2.040E-002, 8.538E+001
 2.460E+002, 3.856E+002, 6.893E+002, 1.892E-002, 2.040E-002, 8.845E+001
 2.480E+002, 3.766E+002, 6.895E+002, 1.921E-002, 2.040E-002, 8.471E+001
 2.500E+002, 3.850E+002, 6.911E+002, 1.906E-002, 2.040E-002, 8.744E+001
 2.520E+002, 3.774E+002, 6.902E+002, 1.898E-002, 2.040E-002, 8.489E+001
 2.540E+002, 3.773E+002, 6.901E+002, 1.871E-002, 2.040E-002, 8.545E+001
 2.560E+002, 3.779E+002, 6.956E+002, 1.863E-002, 2.040E-002, 8.820E+001
 2.580E+002, 3.722E+002, 6.926E+002, 1.873E-002, 2.040E-002, 8.363E+001
 2.600E+002, 3.756E+002, 6.913E+002, 1.841E-002, 2.040E-002, 8.435E+001
 2.620E+002, 3.693E+002, 6.959E+002, 1.821E-002, 2.040E-002, 8.706E+001
 2.640E+002, 3.741E+002, 6.932E+002, 1.822E-002, 2.040E-002, 8.347E+001
 2.660E+002, 3.658E+002, 6.922E+002, 1.796E-002, 2.040E-002, 8.377E+001
 2.680E+002, 3.639E+002, 6.923E+002, 1.772E-002, 2.040E-002, 8.321E+001
 2.700E+002, 3.584E+002, 6.971E+002, 1.755E-002, 2.040E-002, 8.652E+001
 2.720E+002, 3.668E+002, 7.030E+002, 1.769E-002, 2.040E-002, 8.890E+001
 2.740E+002, 3.590E+002, 7.059E+002, 1.794E-002, 2.040E-002, 8.793E+001
 2.760E+002, 3.642E+002, 7.002E+002, 1.794E-002, 2.040E-002, 8.426E+001
 2.780E+002, 3.583E+002, 7.013E+002, 1.759E-002, 2.040E-002, 8.607E+001
 2.800E+002, 3.536E+002, 7.004E+002, 1.741E-002, 2.040E-002, 8.439E+001
 2.820E+002, 3.500E+002, 7.002E+002, 1.718E-002, 2.040E-002, 8.445E+001
 2.840E+002, 3.501E+002, 7.047E+002, 1.704E-002, 2.040E-002, 8.687E+001
 2.860E+002, 3.466E+002, 7.034E+002, 1.705E-002, 2.040E-002, 8.473E+001
 2.880E+002, 3.486E+002, 7.047E+002, 1.693E-002, 2.040E-002, 8.577E+001
 2.900E+002, 3.447E+002, 7.098E+002, 1.685E-002, 2.040E-002, 8.940E+001
 2.920E+002, 3.445E+002, 7.129E+002, 1.694E-002, 2.040E-002, 8.843E+001
 2.940E+002, 3.412E+002, 7.097E+002, 1.699E-002, 2.040E-002, 8.627E+001
 2.960E+002, 3.400E+002, 7.114E+002, 1.683E-002, 2.040E-002, 8.643E+001
 2.980E+002, 3.354E+002, 7.144E+002, 1.673E-002, 2.040E-002, 8.942E+001
 3.000E+002, 3.352E+002, 7.110E+002, 1.669E-002, 2.040E-002, 8.462E+001
 3.020E+002, 3.333E+002, 7.135E+002, 1.650E-002, 2.040E-002, 8.845E+001
 3.040E+002, 3.280E+002, 7.168E+002, 1.642E-002, 2.040E-002, 8.839E+001
 3.060E+002, 3.328E+002, 7.129E+002, 1.639E-002, 2.040E-002, 8.519E+001
 3.080E+002, 3.265E+002, 7.172E+002, 1.620E-002, 2.040E-002, 8.952E+001
 3.100E+002, 3.277E+002, 7.186E+002, 1.615E-002, 2.040E-002, 8.766E+001
 3.120E+002, 3.252E+002, 7.190E+002, 1.612E-002, 2.040E-002, 8.842E+001
 3.140E+002, 3.242E+002, 7.184E+002, 1.605E-002, 2.040E-002, 8.666E+001
 3.160E+002, 3.191E+002, 7.175E+002, 1.592E-002, 2.040E-002, 8.604E+001
 3.180E+002, 3.177E+002, 7.207E+002, 1.574E-002, 2.040E-002, 8.957E+001
 3.200E+002, 3.140E+002, 7.215E+002, 1.568E-002, 2.040E-002, 8.675E+001
 3.220E+002, 3.143E+002, 7.162E+002, 1.561E-002, 2.040E-002, 8.380E+001
 3.240E+002, 3.111E+002, 7.151E+002, 1.534E-002, 2.040E-002, 8.456E+001
 3.260E+002, 3.059E+002, 7.180E+002, 1.507E-002, 2.040E-002, 8.691E+001
 3.280E+002, 3.057E+002, 7.149E+002, 1.492E-002, 2.040E-002, 8.276E+001
 3.300E+002, 3.014E+002, 7.180E+002, 1.474E-002, 2.040E-002, 8.686E+001
 3.320E+002, 2.974E+002, 7.183E+002, 1.461E-002, 2.040E-002, 8.434E+001
 3.340E+002, 2.986E+002, 7.217E+002, 1.453E-002, 2.040E-002, 8.818E+001
 3.360E+002, 2.928E+002, 7.222E+002, 1.449E-002, 2.040E-002, 8.635E+001
 3.380E+002, 2.987E+002, 7.185E+002, 1.444E-002, 2.040E-002, 8.353E+001
 3.400E+002, 2.925E+002, 7.223E+002, 1.428E-002, 2.040E-002, 8.740E+001
 3.420E+002, 2.886E+002, 7.243E+002, 1.415E-002, 2.040E-002, 8.737E+001
 3.440E+002, 2.897E+002, 7.304E+002, 1.412E-002, 2.040E-002, 8.999E+001
 3.460E+002, 2.838E+002, 7.285E+002, 1.418E-002, 2.040E-002, 8.718E+001
 3.480E+002, 2.857E+002, 7.315E+002, 1.415E-002, 2.040E-002, 9.028E+001
 3.500E+002, 2.833E+002, 7.334E+002, 1.409E-002, 2.040E-002, 8.882E+001
 3.520E+002, 2.822E+002, 7.331E+002, 1.405E-002, 2.040E-002, 8.926E+001
 3.540E+002, 2.789E+002, 7.296E+002, 1.394E-002, 2.040E-002, 8.649E+001
 3.560E+002, 2.774E+002, 7.322E+002, 1.372E-002, 2.040E-002, 8.827E+001
 3.580E+002, 2.737E+002, 7.361E+002, 1.353E-002, 2.040E-002, 9.080E+001
 3.600E+002, 2.696E+002, 7.320E+002, 1.342E-002, 2.040E-002, 8.568E+001
 3.620E+002, 2.663E+002, 7.343E+002, 1.325E-002, 2.040E-002, 8.849E+001
 3.640E+002, 2.668E+002, 7.350E+002, 1.303E-002, 2.040E-002, 8.891E+001
 3.660E+002, 2.606E+002, 7.354E+002, 1.283E-002, 2.040E-002, 8.818E+001
 3.680E+002, 2.566E+002, 7.309E+002, 1.260E-002, 2.040E-002, 8.410E+001
 3.700E+002, 2.503E+002, 7.340E+002, 1.229E-002, 2.040E-002, 8.845E+001
 3.720E+002, 2.516E+002, 7.404E+002, 1.196E-002, 2.040E-002, 9.081E+001
 3.740E+002, 2.443E+002, 7.355E+002, 1.179E-002, 2.040E-002, 8.571E+001
 3.760E+002, 2.436E+002, 7.358E+002, 1.150E-002, 2.040E-002, 8.787E+001
 3.780E+002, 2.357E+002, 7.396E+002, 1.108E-002, 2.040E-002, 8.821E+001
 3.800E+002, 2.324E+002, 7.389E+002, 1.069E-002, 2.040E-002, 8.762E+001
 3.820E+002, 2.256E+002, 7.405E+002, 1.020E-002, 2.040E-002, 8.757E+001
 3.840E+002, 2.191E+002, 7.416E+002, 9.600E-003, 2.040E-002, 8.854E+001
 3.860E+002, 2.051E+002, 7.442E+002, 8.838E-003, 2.040E-002, 8.840E+001
 3.880E+002, 1.959E+002, 7.439E+002, 7.831E-003, 2.040E-002, 8.818E+001
 3.900E+002, 1.841E+002, 7.408E+002, 6.382E-003, 2.040E-002, 8.510E+001
 3.920E+002, 1.740E+002, 7.436E+002, 4.257E-003, 2.040E-002, 8.725E+001
 3.940E+002, 1.635E+002, 7.467E+002, 1.686E-003, 2.040E-002, 8.701E+001
 3.960E+002, 1.577E+002, 7.458E+002, 1.847E-004, 2.040E-002, 8.512E+001
 3.980E+002, 1.507E+002, 7.468E+002, 1.917E-006, 2.040E-002, 8.421E+001
 4.000E+002, 1.452E+002, 7.481E+002, 8.542E-010, 2.040E-002, 8.355E+001
 4.020E+002, 1.406E+002, 7.436E+002, 8.126E-015, 2.040E-002, 7.829E+001
 4.040E+002, 1.380E+002, 7.459E+002, 8.206E-022, 2.040E-002, 8.175E+001
 4.060E+002, 1.352E+002, 7.462E+002, 5.374E-031, 2.040E-002, 7.979E+001
 4.080E+002, 1.326E+002, 7.434E+002, 0.000E+000, 2.040E-002, 7.763E+001
 4.100E+002, 1.303E+002, 7.415E+002, 0.000E+000, 2.040E-002, 7.632E+001
 4.120E+002, 1.278E+002, 7.439E+002, 0.000E+000, 2.040E-002, 7.859E+001
 4.140E+002, 1.248E+002, 7.426E+002, 0.000E+000, 2.040E-002, 7.514E+001
 4.160E+002, 1.212E+002, 7.384E+002, 0.000E+000, 2.040E-002, 7.371E+001
 4.180E+002, 1.177E+002, 7.385E+002, 0.000E+000, 2.040E-002, 7.360E+001
 4.200E+002, 1.133E+002, 7.379E+002, 0.000E+000, 2.040E-002, 7.274E+001
 4.220E+002, 1.086E+002, 7.337E+002, 0.000E+000, 2.040E-002, 7.078E+001
 4.240E+002, 1.042E+002, 7.322E+002, 0.000E+000, 2.040E-002, 7.002E+001
 4.260E+002, 1.010E+002, 7.259E+002, 0.000E+000, 2.040E-002, 6.778E+001
 4.280E+002, 9.867E+001, 7.235E+002, 0.000E+000, 2.040E-002, 6.807E+001
 4.300E+002, 9.746E+001, 7.257E+002, 0.000E+000, 2.040E-002, 6.865E+001
 4.320E+002, 9.532E+001, 7.244E+002, 0.000E+000, 2.040E-002, 6.895E+001
 4.340E+002, 9.316E+001, 7.178E+002, 0.000E+000, 2.040E-002, 6.540E+001
 4.360E+002, 9.133E+001, 7.149E+002, 0.000E+000, 2.040E-002, 6.643E+001
 4.380E+002, 8.914E+001, 7.166E+002, 0.000E+000, 2.040E-002, 6.689E+001
 4.400E+002, 8.664E+001, 7.146E+002, 0.000E+000, 2.040E-002, 6.647E+001
 4.420E+002, 8.439E+001, 7.123E+002, 0.000E+000, 2.040E-002, 6.544E+001
 4.440E+002, 8.254E+001, 7.064E+002, 0.000E+000, 2.040E-002, 6.419E+001
 4.460E+002, 8.121E+001, 7.083E+002, 0.000E+000, 2.040E-002, 6.544E+001
 4.480E+002, 8.007E+001, 7.062E+002, 0.000E+000, 2.040E-002, 6.451E+001
 4.500E+002, 7.898E+001, 7.048E+002, 0.000E+000, 2.040E-002, 6.424E+001
 4.520E+002, 7.804E+001, 7.026E+002, 0.000E+000, 2.040E-002, 6.374E+001
 4.540E+002, 7.702E+001, 7.003E+002, 0.000E+000, 2.040E-002, 6.335E+001
 4.560E+002, 7.602E+001, 6.984E+002, 0.000E+000, 2.040E-002, 6.262E+001
 4.580E+002, 7.517E+001, 6.972E+002, 0.000E+000, 2.040E-002, 6.306E+001
 4.600E+002, 7.413E+001, 6.953E+002, 0.000E+000, 2.040E-002, 6.291E+001
 4.620E+002, 7.306E+001, 6.941E+002, 0.000E+000, 2.040E-002, 6.216E+001
 4.640E+002, 7.161E+001, 6.956E+002, 0.000E+000, 2.040E-002, 6.366E+001
 4.660E+002, 7.008E+001, 6.937E+002, 0.000E+000, 2.040E-002, 6.213E+001
 4.680E+002, 6.841E+001, 6.915E+002, 0.000E+000, 2.040E-002, 6.182E+001
 4.700E+002, 6.677E+001, 6.819E+002, 0.000E+000, 2.040E-002, 5.816E+001
 4.720E+002, 6.530E+001, 6.814E+002, 0.000E+000, 2.040E-002, 6.058E+001
 4.740E+002, 6.378E+001, 6.872E+002, 0.000E+000, 2.040E-002, 6.244E+001
 4.760E+002, 6.215E+001, 6.862E+002, 0.000E+000, 2.040E-002, 6.154E+001
 4.780E+002, 6.073E+001, 6.857E+002, 0.000E+000, 2.040E-002, 6.128E+001
 4.800E+002, 5.973E+001, 6.835E+002, 0.000E+000, 2.040E-002, 6.080E+001
 4.820E+002, 5.891E+001, 6.845E+002, 0.000E+000, 2.040E-002, 6.136E+001
 4.840E+002, 5.817E+001, 6.803E+002, 0.000E+000, 2.040E-002, 5.954E+001
 4.860E+002, 5.749E+001, 6.816E+002, 0.000E+000, 2.040E-002, 6.125E+001
 4.880E+002, 5.685E+001, 6.810E+002, 0.000E+000, 2.040E-002, 6.086E+001
 4.900E+002, 5.611E+001, 6.794E+002, 0.000E+000, 2.040E-002, 5.994E+001
 4.920E+002, 5.536E+001, 6.764E+002, 0.000E+000, 2.040E-002, 5.898E+001
 4.940E+002, 5.486E+001, 6.783E+002, 0.000E+000, 2.040E-002, 6.084E+001
 4.960E+002, 5.425E+001, 6.798E+002, 0.000E+000, 2.040E-002, 6.082E+001
 4.980E+002, 5.347E+001, 6.803E+002, 0.000E+000, 2.040E-002, 6.144E+001
 5.000E+002, 5.259E+001, 6.770E+002, 0.000E+000, 2.040E-002, 5.931E+001
 5.020E+002, 5.183E+001, 6.774E+002, 0.000E+000, 2.040E-002, 6.034E+001
 5.040E+002, 5.103E+001, 6.771E+002, 0.000E+000, 2.040E-002, 6.056E+001
 5.060E+002, 5.023E+001, 6.792E+002, 0.000E+000, 2.040E-002, 6.081E+001
 5.080E+002, 4.934E+001, 6.744E+002, 0.000E+000, 2.040E-002, 5.876E+001
 5.100E+002, 4.850E+001, 6.736E+002, 0.000E+000, 2.040E-002, 5.911E+001
 5.120E+002, 4.763E+001, 6.721E+002, 0.000E+000, 2.040E-002, 5.918E+001
 5.140E+002, 4.663E+001, 6.743E+002, 0.000E+000, 2.040E-002, 5.981E+001
 5.160E+002, 4.557E+001, 6.737E+002, 0.000E+000, 2.040E-002, 5.958E+001
 5.180E+002, 4.443E+001, 6.724E+002, 0.000E+000, 2.040E-002, 5.896E+001
 5.200E+002, 4.330E+001, 6.718E+002, 0.000E+000, 2.040E-002, 5.910E+001
 5.220E+002, 4.219E+001, 6.691E+002, 0.000E+000, 2.040E-002, 5.796E+001
 5.240E+002, 4.108E+001, 6.682E+002, 0.000E+000, 2.040E-002, 5.818E+001
 5.260E+002, 3.993E+001, 6.682E+002, 0.000E+000, 2.040E-002, 5.854E+001
 5.280E+002, 3.885E+001, 6.679E+002, 0.000E+000, 2.040E-002, 5.808E+001
 5.300E+002, 3.783E+001, 6.661E+002, 0.000E+000, 2.040E-002, 5.759E+001
 5.320E+002, 3.688E+001, 6.664E+002, 0.000E+000, 2.040E-002, 5.798E+001
 5.340E+002, 3.593E+001, 6.654E+002, 0.000E+000, 2.040E-002, 5.785E+001
 5.360E+002, 3.488E+001, 6.653E+002, 0.000E+000, 2.040E-002, 5.770E+001
 5.380E+002, 3.378E+001, 6.634E+002, 0.000E+000, 2.040E-002, 5.729E+001
 5.400E+002, 3.263E+001, 6.603E+002, 0.000E+000, 2.040E-002, 5.621E+001
 5.420E+002, 3.154E+001, 6.585E+002, 0.000E+000, 2.040E-002, 5.593E+001
 5.440E+002, 3.047E+001, 6.568E+002, 0.000E+000, 2.040E-002, 5.597E+001
 5.460E+002, 2.936E+001, 6.562E+002, 0.000E+000, 2.040E-002, 5.580E+001
 5.480E+002, 2.827E+001, 6.582E+002, 0.000E+000, 2.040E-002, 5.677E+001
 5.500E+002, 2.714E+001, 6.584E+002, 0.000E+000, 2.040E-002, 5.643E+001
