s,kW,C,kg/s,m,kW/m2
Time,"HRR","temp","MLR","thick","flux"
 0.000E+000, 0.000E+000, 2.000E+001, 0.000E+000, 1.900E-002,-4.813E-011
 2.012E+000, 0.000E+000, 3.630E+001, 7.251E-022, 1.900E-002, 3.501E+001
 4.003E+000, 0.000E+000, 5.876E+001, 7.478E-020, 1.900E-002, 3.507E+001
 6.015E+000, 0.000E+000, 7.508E+001, 2.092E-018, 1.900E-002, 3.514E+001
 8.012E+000, 0.000E+000, 8.852E+001, 2.799E-017, 1.900E-002, 3.518E+001
 1.000E+001, 0.000E+000, 1.001E+002, 2.335E-016, 1.900E-002, 3.521E+001
 1.201E+001, 0.000E+000, 1.104E+002, 1.417E-015, 1.900E-002, 3.523E+001
 1.402E+001, 0.000E+000, 1.198E+002, 6.804E-015, 1.900E-002, 3.526E+001
 1.600E+001, 0.000E+000, 1.285E+002, 2.697E-014, 1.900E-002, 3.529E+001
 1.801E+001, 0.000E+000, 1.365E+002, 9.271E-014, 1.900E-002, 3.531E+001
 2.001E+001, 0.000E+000, 1.441E+002, 2.836E-013, 1.900E-002, 3.536E+001
 2.201E+001, 3.553E-010, 1.513E+002, 7.860E-013, 1.900E-002, 3.539E+001
 2.401E+001, 1.840E-008, 1.580E+002, 2.013E-012, 1.900E-002, 3.539E+001
 2.601E+001, 7.200E-008, 1.646E+002, 4.826E-012, 1.900E-002, 3.544E+001
 2.801E+001, 1.988E-007, 1.710E+002, 1.090E-011, 1.900E-002, 3.552E+001
 3.001E+001, 4.370E-007, 1.770E+002, 2.344E-011, 1.900E-002, 3.550E+001
 3.201E+001, 8.938E-007, 1.828E+002, 4.833E-011, 1.900E-002, 3.549E+001
 3.401E+001, 1.777E-006, 1.883E+002, 9.592E-011, 1.900E-002, 3.548E+001
 3.600E+001, 3.444E-006, 1.941E+002, 1.843E-010, 1.900E-002, 3.563E+001
 3.800E+001, 6.507E-006, 1.995E+002, 3.437E-010, 1.900E-002, 3.560E+001
 4.000E+001, 1.189E-005, 2.047E+002, 6.242E-010, 1.900E-002, 3.558E+001
 4.201E+001, 2.120E-005, 2.101E+002, 1.108E-009, 1.900E-002, 3.571E+001
 4.401E+001, 3.692E-005, 2.151E+002, 1.926E-009, 1.900E-002, 3.563E+001
 4.600E+001, 6.291E-005, 2.202E+002, 3.276E-009, 1.900E-002, 3.573E+001
 4.801E+001, 1.053E-004, 2.252E+002, 5.476E-009, 1.900E-002, 3.569E+001
 5.001E+001, 1.732E-004, 2.301E+002, 8.999E-009, 1.900E-002, 3.579E+001
 5.201E+001, 2.805E-004, 2.350E+002, 1.457E-008, 1.900E-002, 3.576E+001
 5.401E+001, 4.475E-004, 2.397E+002, 2.323E-008, 1.900E-002, 3.581E+001
 5.600E+001, 7.029E-004, 2.445E+002, 3.648E-008, 1.900E-002, 3.586E+001
 5.801E+001, 1.091E-003, 2.492E+002, 5.658E-008, 1.900E-002, 3.586E+001
 6.000E+001, 1.672E-003, 2.539E+002, 8.669E-008, 1.900E-002, 3.592E+001
 6.200E+001, 2.531E-003, 2.584E+002, 1.311E-007, 1.900E-002, 3.593E+001
 6.401E+001, 3.791E-003, 2.630E+002, 1.965E-007, 1.900E-002, 3.598E+001
 6.601E+001, 5.621E-003, 2.673E+002, 2.911E-007, 1.900E-002, 3.592E+001
 6.801E+001, 8.238E-003, 2.718E+002, 4.265E-007, 1.900E-002, 3.602E+001
 7.000E+001, 1.196E-002, 2.765E+002, 6.189E-007, 1.900E-002, 3.611E+001
 7.200E+001, 1.719E-002, 2.807E+002, 8.895E-007, 1.900E-002, 3.609E+001
 7.400E+001, 2.448E-002, 2.850E+002, 1.267E-006, 1.900E-002, 3.612E+001
 7.601E+001, 3.459E-002, 2.892E+002, 1.790E-006, 1.900E-002, 3.614E+001
 7.801E+001, 4.850E-002, 2.933E+002, 2.508E-006, 1.900E-002, 3.610E+001
 8.001E+001, 6.733E-002, 2.974E+002, 3.483E-006, 1.900E-002, 3.617E+001
 8.201E+001, 9.284E-002, 3.014E+002, 4.799E-006, 1.900E-002, 3.616E+001
 8.400E+001, 1.269E-001, 3.053E+002, 6.561E-006, 1.900E-002, 3.610E+001
 8.600E+001, 1.723E-001, 3.092E+002, 8.908E-006, 1.900E-002, 3.619E+001
 8.801E+001, 2.327E-001, 3.129E+002, 1.202E-005, 1.900E-002, 3.613E+001
 9.001E+001, 3.120E-001, 3.166E+002, 1.612E-005, 1.900E-002, 3.620E+001
 9.201E+001, 4.158E-001, 3.206E+002, 2.148E-005, 1.900E-002, 3.629E+001
 9.401E+001, 5.507E-001, 3.245E+002, 2.844E-005, 1.900E-002, 3.639E+001
 9.600E+001, 7.241E-001, 3.281E+002, 3.739E-005, 1.900E-002, 3.639E+001
 9.801E+001, 9.488E-001, 3.322E+002, 4.898E-005, 1.900E-002, 3.665E+001
 1.000E+002, 1.238E+000, 3.364E+002, 6.388E-005, 1.900E-002, 3.687E+001
 1.020E+002, 1.606E+000, 3.402E+002, 8.290E-005, 1.900E-002, 3.686E+001
 1.040E+002, 2.077E+000, 3.444E+002, 1.072E-004, 1.900E-002, 3.735E+001
 1.060E+002, 2.680E+000, 3.487E+002, 1.383E-004, 1.900E-002, 3.751E+001
 1.080E+002, 3.449E+000, 3.531E+002, 1.780E-004, 1.900E-002, 3.800E+001
 1.100E+002, 4.435E+000, 3.574E+002, 2.288E-004, 1.900E-002, 3.835E+001
 1.120E+002, 5.699E+000, 3.625E+002, 2.941E-004, 1.900E-002, 3.897E+001
 1.140E+002, 7.325E+000, 3.670E+002, 3.780E-004, 1.900E-002, 3.947E+001
 1.160E+002, 9.433E+000, 3.722E+002, 4.867E-004, 1.900E-002, 4.081E+001
 1.180E+002, 1.222E+001, 3.779E+002, 6.303E-004, 1.900E-002, 4.276E+001
 1.200E+002, 1.600E+001, 3.850E+002, 8.264E-004, 1.900E-002, 4.548E+001
 1.220E+002, 2.139E+001, 3.932E+002, 1.106E-003, 1.900E-002, 4.932E+001
 1.240E+002, 3.005E+001, 4.056E+002, 1.564E-003, 1.900E-002, 5.874E+001
 1.260E+002, 4.430E+001, 4.198E+002, 2.305E-003, 1.900E-002, 6.559E+001
 1.280E+002, 6.610E+001, 4.318E+002, 3.464E-003, 1.900E-002, 6.953E+001
 1.300E+002, 9.721E+001, 4.393E+002, 5.116E-003, 1.900E-002, 6.829E+001
 1.320E+002, 1.424E+002, 4.454E+002, 7.455E-003, 1.900E-002, 7.042E+001
 1.340E+002, 1.999E+002, 4.518E+002, 1.049E-002, 1.900E-002, 7.072E+001
 1.360E+002, 2.721E+002, 4.592E+002, 1.431E-002, 1.900E-002, 7.147E+001
 1.380E+002, 3.622E+002, 4.680E+002, 1.901E-002, 1.900E-002, 7.220E+001
 1.400E+002, 4.634E+002, 4.790E+002, 2.412E-002, 1.900E-002, 7.129E+001
 1.420E+002, 5.436E+002, 4.957E+002, 2.860E-002, 1.900E-002, 6.909E+001
 1.440E+002, 6.264E+002, 5.244E+002, 3.222E-002, 1.900E-002, 7.180E+001
 1.460E+002, 6.648E+002, 5.373E+002, 3.475E-002, 1.900E-002, 7.033E+001
 1.480E+002, 6.967E+002, 5.417E+002, 3.568E-002, 1.900E-002, 7.054E+001
 1.500E+002, 7.074E+002, 5.532E+002, 3.672E-002, 1.900E-002, 7.088E+001
 1.520E+002, 7.166E+002, 5.574E+002, 3.678E-002, 1.900E-002, 6.985E+001
 1.540E+002, 7.078E+002, 5.714E+002, 3.662E-002, 1.900E-002, 7.074E+001
 1.560E+002, 7.131E+002, 5.863E+002, 3.649E-002, 1.900E-002, 7.245E+001
 1.580E+002, 7.059E+002, 6.016E+002, 3.557E-002, 1.901E-002, 7.360E+001
 1.600E+002, 6.514E+002, 6.059E+002, 3.390E-002, 1.901E-002, 7.110E+001
 1.620E+002, 6.482E+002, 6.005E+002, 3.286E-002, 1.901E-002, 6.897E+001
 1.640E+002, 6.404E+002, 6.115E+002, 3.297E-002, 1.901E-002, 7.292E+001
 1.660E+002, 6.351E+002, 6.184E+002, 3.283E-002, 1.901E-002, 7.215E+001
 1.680E+002, 6.432E+002, 6.148E+002, 3.278E-002, 1.901E-002, 6.974E+001
 1.700E+002, 6.346E+002, 6.206E+002, 3.269E-002, 1.901E-002, 7.085E+001
 1.720E+002, 6.352E+002, 6.303E+002, 3.222E-002, 1.901E-002, 7.169E+001
 1.740E+002, 6.154E+002, 6.371E+002, 3.166E-002, 1.901E-002, 7.260E+001
 1.760E+002, 6.045E+002, 6.432E+002, 3.088E-002, 1.901E-002, 7.276E+001
 1.780E+002, 5.937E+002, 6.565E+002, 3.079E-002, 1.901E-002, 7.630E+001
 1.800E+002, 6.016E+002, 6.452E+002, 3.056E-002, 1.901E-002, 7.075E+001
 1.820E+002, 5.915E+002, 6.478E+002, 3.064E-002, 1.901E-002, 7.172E+001
 1.840E+002, 5.977E+002, 6.508E+002, 3.094E-002, 1.901E-002, 7.125E+001
 1.860E+002, 6.054E+002, 6.528E+002, 3.068E-002, 1.901E-002, 7.267E+001
 1.880E+002, 5.857E+002, 6.566E+002, 3.040E-002, 1.901E-002, 7.101E+001
 1.900E+002, 5.816E+002, 6.605E+002, 2.947E-002, 1.901E-002, 7.318E+001
 1.920E+002, 5.616E+002, 6.673E+002, 2.887E-002, 1.901E-002, 7.239E+001
 1.940E+002, 5.581E+002, 6.658E+002, 2.830E-002, 1.901E-002, 7.248E+001
 1.960E+002, 5.424E+002, 6.733E+002, 2.800E-002, 1.901E-002, 7.499E+001
 1.980E+002, 5.405E+002, 6.881E+002, 2.774E-002, 1.901E-002, 7.904E+001
 2.000E+002, 5.357E+002, 6.857E+002, 2.761E-002, 1.901E-002, 7.420E+001
 2.020E+002, 5.353E+002, 6.763E+002, 2.738E-002, 1.901E-002, 7.210E+001
 2.040E+002, 5.351E+002, 6.747E+002, 2.693E-002, 1.901E-002, 7.221E+001
 2.060E+002, 5.140E+002, 6.824E+002, 2.643E-002, 1.901E-002, 7.517E+001
 2.080E+002, 4.996E+002, 6.870E+002, 2.589E-002, 1.901E-002, 7.408E+001
 2.100E+002, 4.935E+002, 6.857E+002, 2.536E-002, 1.901E-002, 7.364E+001
 2.120E+002, 4.873E+002, 6.892E+002, 2.487E-002, 1.902E-002, 7.401E+001
 2.140E+002, 4.823E+002, 6.878E+002, 2.451E-002, 1.902E-002, 7.329E+001
 2.160E+002, 4.708E+002, 6.929E+002, 2.413E-002, 1.902E-002, 7.485E+001
 2.180E+002, 4.670E+002, 6.944E+002, 2.378E-002, 1.902E-002, 7.445E+001
 2.200E+002, 4.503E+002, 6.917E+002, 2.345E-002, 1.902E-002, 7.279E+001
 2.220E+002, 4.517E+002, 6.906E+002, 2.300E-002, 1.902E-002, 7.229E+001
 2.240E+002, 4.391E+002, 6.961E+002, 2.250E-002, 1.902E-002, 7.378E+001
 2.260E+002, 4.297E+002, 6.884E+002, 2.198E-002, 1.902E-002, 7.111E+001
 2.280E+002, 4.190E+002, 6.898E+002, 2.146E-002, 1.902E-002, 7.152E+001
 2.300E+002, 4.113E+002, 7.005E+002, 2.100E-002, 1.902E-002, 7.510E+001
 2.320E+002, 4.008E+002, 7.059E+002, 2.073E-002, 1.902E-002, 7.645E+001
 2.340E+002, 4.059E+002, 7.035E+002, 2.046E-002, 1.902E-002, 7.407E+001
 2.360E+002, 3.895E+002, 6.983E+002, 2.012E-002, 1.902E-002, 7.146E+001
 2.380E+002, 3.858E+002, 7.047E+002, 1.974E-002, 1.902E-002, 7.371E+001
 2.400E+002, 3.766E+002, 7.002E+002, 1.940E-002, 1.902E-002, 7.192E+001
 2.420E+002, 3.711E+002, 7.029E+002, 1.903E-002, 1.902E-002, 7.405E+001
 2.440E+002, 3.661E+002, 7.080E+002, 1.866E-002, 1.902E-002, 7.459E+001
 2.460E+002, 3.577E+002, 6.991E+002, 1.830E-002, 1.902E-002, 7.001E+001
 2.480E+002, 3.464E+002, 7.077E+002, 1.794E-002, 1.902E-002, 7.451E+001
 2.500E+002, 3.458E+002, 7.063E+002, 1.763E-002, 1.902E-002, 7.283E+001
 2.520E+002, 3.360E+002, 7.059E+002, 1.730E-002, 1.902E-002, 7.261E+001
 2.540E+002, 3.330E+002, 7.060E+002, 1.699E-002, 1.902E-002, 7.228E+001
 2.560E+002, 3.268E+002, 7.099E+002, 1.669E-002, 1.902E-002, 7.441E+001
 2.580E+002, 3.188E+002, 7.138E+002, 1.639E-002, 1.902E-002, 7.336E+001
 2.600E+002, 3.162E+002, 7.041E+002, 1.607E-002, 1.902E-002, 7.049E+001
 2.620E+002, 3.083E+002, 7.096E+002, 1.572E-002, 1.902E-002, 7.448E+001
 2.640E+002, 3.009E+002, 7.193E+002, 1.538E-002, 1.902E-002, 7.589E+001
 2.660E+002, 2.917E+002, 7.151E+002, 1.508E-002, 1.902E-002, 7.300E+001
 2.680E+002, 2.882E+002, 7.112E+002, 1.475E-002, 1.902E-002, 7.169E+001
 2.700E+002, 2.805E+002, 7.116E+002, 1.440E-002, 1.902E-002, 7.153E+001
 2.720E+002, 2.757E+002, 7.205E+002, 1.410E-002, 1.903E-002, 7.629E+001
 2.740E+002, 2.687E+002, 7.257E+002, 1.382E-002, 1.903E-002, 7.674E+001
 2.760E+002, 2.649E+002, 7.245E+002, 1.353E-002, 1.903E-002, 7.545E+001
 2.780E+002, 2.576E+002, 7.235E+002, 1.324E-002, 1.903E-002, 7.459E+001
 2.800E+002, 2.541E+002, 7.242E+002, 1.293E-002, 1.903E-002, 7.422E+001
 2.820E+002, 2.466E+002, 7.229E+002, 1.259E-002, 1.903E-002, 7.456E+001
 2.840E+002, 2.368E+002, 7.224E+002, 1.223E-002, 1.903E-002, 7.313E+001
 2.860E+002, 2.333E+002, 7.204E+002, 1.188E-002, 1.903E-002, 7.309E+001
 2.880E+002, 2.255E+002, 7.208E+002, 1.154E-002, 1.903E-002, 7.267E+001
 2.900E+002, 2.186E+002, 7.294E+002, 1.122E-002, 1.903E-002, 7.606E+001
 2.920E+002, 2.131E+002, 7.291E+002, 1.087E-002, 1.903E-002, 7.596E+001
 2.940E+002, 2.040E+002, 7.326E+002, 1.047E-002, 1.903E-002, 7.575E+001
 2.960E+002, 1.959E+002, 7.321E+002, 1.004E-002, 1.903E-002, 7.568E+001
 2.980E+002, 1.868E+002, 7.324E+002, 9.543E-003, 1.903E-002, 7.457E+001
 3.000E+002, 1.768E+002, 7.280E+002, 8.992E-003, 1.903E-002, 7.349E+001
