s,C,kg/m2/s,m
Time,"temp","MLR","thick"
 0.0000000E+000, 2.0000000E+001, 0.0000000E+000, 3.1534299E-002
 5.1000000E+000, 6.3171436E+001, 0.0000000E+000, 3.1534299E-002
 1.0100000E+001, 1.2561325E+002, 0.0000000E+000, 3.1534299E-002
 1.5100000E+001, 1.6283337E+002, 7.8789632E-020, 3.1534299E-002
 2.0000000E+001, 1.9333939E+002, 5.5872735E-017, 3.1534299E-002
 2.5000000E+001, 2.2470097E+002, 1.1884563E-014, 3.1534299E-002
 3.0000000E+001, 2.5280405E+002, 8.9091977E-013, 3.1534299E-002
 3.5000000E+001, 2.7779541E+002, 2.9899985E-011, 3.1534299E-002
 4.0000000E+001, 3.0019183E+002, 5.4798405E-010, 3.1534299E-002
 4.5000000E+001, 3.2045444E+002, 6.4504557E-009, 3.1534299E-002
 5.0000000E+001, 3.3877271E+002, 5.3381470E-008, 3.1534299E-002
 5.5000000E+001, 3.5540292E+002, 3.2928611E-007, 3.1534299E-002
 6.0000000E+001, 3.7063812E+002, 1.6162020E-006, 3.1534296E-002
 6.5000000E+001, 3.8457785E+002, 6.5513368E-006, 3.1534273E-002
 7.0000000E+001, 3.9737173E+002, 2.2562037E-005, 3.1534202E-002
 7.5000000E+001, 4.0911829E+002, 6.7699853E-005, 3.1533971E-002
 8.0100000E+001, 4.1989261E+002, 1.8039341E-004, 3.1533320E-002
 8.5100000E+001, 4.2948239E+002, 4.2125111E-004, 3.1531714E-002
 9.0100000E+001, 4.3758292E+002, 8.5242838E-004, 3.1528290E-002
 9.5100000E+001, 4.4409433E+002, 1.4949564E-003, 3.1521894E-002
 1.0010000E+002, 4.4900690E+002, 2.2860412E-003, 3.1511508E-002
 1.0510000E+002, 4.5256268E+002, 3.1185951E-003, 3.1496610E-002
 1.1010000E+002, 4.5512601E+002, 3.9125727E-003, 3.1477224E-002
 1.1510000E+002, 4.5702203E+002, 4.6366057E-003, 3.1453662E-002
 1.2010000E+002, 4.5847824E+002, 5.2891350E-003, 3.1426325E-002
 1.2510000E+002, 4.5901544E+002, 5.7582823E-003, 3.1395748E-002
 1.3010000E+002, 4.5951535E+002, 6.2562865E-003, 3.1362917E-002
 1.3510000E+002, 4.6052341E+002, 6.8228045E-003, 3.1326912E-002
 1.4010000E+002, 4.6135080E+002, 7.3284218E-003, 3.1287991E-002
 1.4510000E+002, 4.6207932E+002, 7.8124623E-003, 3.1246362E-002
 1.5010000E+002, 4.6273868E+002, 8.2897283E-003, 3.1202098E-002
 1.5510000E+002, 4.6334085E+002, 8.7647317E-003, 3.1155217E-002
 1.6010000E+002, 4.6386707E+002, 9.2379497E-003, 3.1105733E-002
 1.6510000E+002, 4.6309964E+002, 9.5418422E-003, 3.1054119E-002
 1.7010000E+002, 4.6371628E+002, 1.0062898E-002, 3.1000264E-002
 1.7510000E+002, 4.6430103E+002, 1.0580579E-002, 3.0943509E-002
 1.8010000E+002, 4.6482074E+002, 1.1075268E-002, 3.0883979E-002
 1.8510000E+002, 4.6528644E+002, 1.1554613E-002, 3.0821778E-002
 1.9010000E+002, 4.6495041E+002, 1.1908200E-002, 3.0757178E-002
 1.9510000E+002, 4.6503558E+002, 1.2353282E-002, 3.0690653E-002
 2.0010000E+002, 4.6552924E+002, 1.2872587E-002, 3.0621305E-002
 2.0510000E+002, 4.6596411E+002, 1.3359255E-002, 3.0549202E-002
 2.1010000E+002, 4.6612750E+002, 1.3792289E-002, 3.0474503E-002
 2.1510000E+002, 4.6568726E+002, 1.4124471E-002, 3.0397901E-002
 2.2010000E+002, 4.6613580E+002, 1.4650553E-002, 3.0318804E-002
 2.2510000E+002, 4.6653394E+002, 1.5135960E-002, 3.0236932E-002
 2.3010000E+002, 4.6654294E+002, 1.5534562E-002, 3.0152529E-002
 2.3510000E+002, 4.6628525E+002, 1.5907550E-002, 3.0066282E-002
 2.4010000E+002, 4.6668759E+002, 1.6417079E-002, 2.9977424E-002
 2.4510000E+002, 4.6703970E+002, 1.6880145E-002, 2.9885907E-002
 2.5010000E+002, 4.6658588E+002, 1.7183146E-002, 2.9792260E-002
 2.5510000E+002, 4.6682755E+002, 1.7655728E-002, 2.9696587E-002
 2.6010000E+002, 4.6717477E+002, 1.8105514E-002, 2.9598292E-002
 2.6510000E+002, 4.6693671E+002, 1.8409627E-002, 2.9497843E-002
 2.7010000E+002, 4.6696780E+002, 1.8796941E-002, 2.9395727E-002
 2.7510000E+002, 4.6730319E+002, 1.9193439E-002, 2.9291300E-002
 2.8010000E+002, 4.6709326E+002, 1.9432273E-002, 2.9185055E-002
 2.8510000E+002, 4.6710632E+002, 1.9736446E-002, 2.9077545E-002
 2.9010000E+002, 4.6742618E+002, 2.0038897E-002, 2.8968217E-002
 2.9510000E+002, 4.6712805E+002, 2.0169318E-002, 2.8857660E-002
 3.0010000E+002, 4.6724216E+002, 2.0403435E-002, 2.8746262E-002
 3.0500000E+002, 4.6754456E+002, 2.0606058E-002, 2.8634682E-002
 3.1000000E+002, 4.6710150E+002, 2.0636581E-002, 2.8522510E-002
 3.1500000E+002, 4.6737610E+002, 2.0832527E-002, 2.8408574E-002
 3.2000000E+002, 4.6753799E+002, 2.0941664E-002, 2.8293718E-002
 3.2500000E+002, 4.6719794E+002, 2.0963961E-002, 2.8178694E-002
 3.3000000E+002, 4.6752444E+002, 2.1121269E-002, 2.8063025E-002
 3.3500000E+002, 4.6745886E+002, 2.1147097E-002, 2.7946791E-002
 3.4000000E+002, 4.6738193E+002, 2.1220377E-002, 2.7830523E-002
 3.4500000E+002, 4.6770978E+002, 2.1329446E-002, 2.7713584E-002
 3.5000000E+002, 4.6743390E+002, 2.1301707E-002, 2.7596425E-002
 3.5500000E+002, 4.6761502E+002, 2.1406148E-002, 2.7479142E-002
 3.6000000E+002, 4.6787024E+002, 2.1452812E-002, 2.7361335E-002
 3.6500000E+002, 4.6756018E+002, 2.1423051E-002, 2.7243629E-002
 3.7000000E+002, 4.6795221E+002, 2.1506187E-002, 2.7125632E-002
 3.7500000E+002, 4.6800302E+002, 2.1472892E-002, 2.7007485E-002
 3.8000000E+002, 4.6803659E+002, 2.1482551E-002, 2.6889559E-002
 3.8500000E+002, 4.6850754E+002, 2.1480270E-002, 2.6771493E-002
 3.9000000E+002, 4.6846048E+002, 2.1391386E-002, 2.6653700E-002
 3.9500000E+002, 4.6892966E+002, 2.1356545E-002, 2.6536267E-002
 4.0000000E+002, 4.6955630E+002, 2.1263521E-002, 2.6419150E-002
 4.0500000E+002, 4.6986823E+002, 2.1089487E-002, 2.6302828E-002
 4.1000000E+002, 4.7097049E+002, 2.0955075E-002, 2.6187291E-002
 4.1500000E+002, 4.7224036E+002, 2.0699413E-002, 2.6072746E-002
 4.2000000E+002, 4.7400671E+002, 2.0411957E-002, 2.5959915E-002
 4.2500000E+002, 4.7665472E+002, 2.0128656E-002, 2.5848510E-002
 4.3000000E+002, 4.8112701E+002, 1.9530566E-002, 2.5739353E-002
 4.3500000E+002, 4.8733087E+002, 1.9068582E-002, 2.5633495E-002
 4.4000000E+002, 4.9735733E+002, 1.8304268E-002, 2.5530564E-002
 4.4500000E+002, 5.2328223E+002, 8.4926300E-003, 2.5445923E-002
 4.5000000E+002, 5.1837018E+002, 0.0000000E+000, 2.5434300E-002
 4.5500000E+002, 5.1361871E+002, 0.0000000E+000, 2.5434300E-002
 4.6000000E+002, 5.1232806E+002, 0.0000000E+000, 2.5434300E-002
 4.6500000E+002, 5.1220020E+002, 0.0000000E+000, 2.5434300E-002
 4.7000000E+002, 5.1259088E+002, 0.0000000E+000, 2.5434300E-002
 4.7500000E+002, 5.1323688E+002, 0.0000000E+000, 2.5434300E-002
 4.8000000E+002, 5.1400897E+002, 0.0000000E+000, 2.5434300E-002
 4.8500000E+002, 5.1483832E+002, 0.0000000E+000, 2.5434300E-002
 4.9000000E+002, 5.1568616E+002, 0.0000000E+000, 2.5434300E-002
 4.9500000E+002, 5.1653027E+002, 0.0000000E+000, 2.5434300E-002
 5.0000000E+002, 5.1735760E+002, 0.0000000E+000, 2.5434300E-002
 5.0500000E+002, 5.1816046E+002, 0.0000000E+000, 2.5434300E-002
 5.1000000E+002, 5.1893457E+002, 0.0000000E+000, 2.5434300E-002
 5.1500000E+002, 5.1967767E+002, 0.0000000E+000, 2.5434300E-002
 5.2000000E+002, 5.2038892E+002, 0.0000000E+000, 2.5434300E-002
 5.2500000E+002, 5.2106812E+002, 0.0000000E+000, 2.5434300E-002
 5.3000000E+002, 5.2171570E+002, 0.0000000E+000, 2.5434300E-002
 5.3500000E+002, 5.2233246E+002, 0.0000000E+000, 2.5434300E-002
 5.4000000E+002, 5.2291931E+002, 0.0000000E+000, 2.5434300E-002
 5.4500000E+002, 5.2347723E+002, 0.0000000E+000, 2.5434300E-002
 5.5000000E+002, 5.2400745E+002, 0.0000000E+000, 2.5434300E-002
 5.5500000E+002, 5.2451105E+002, 0.0000000E+000, 2.5434300E-002
 5.6000000E+002, 5.2498920E+002, 0.0000000E+000, 2.5434300E-002
 5.6500000E+002, 5.2544293E+002, 0.0000000E+000, 2.5434300E-002
 5.7000000E+002, 5.2587347E+002, 0.0000000E+000, 2.5434300E-002
 5.7500000E+002, 5.2628174E+002, 0.0000000E+000, 2.5434300E-002
 5.8000000E+002, 5.2666895E+002, 0.0000000E+000, 2.5434300E-002
 5.8500000E+002, 5.2703595E+002, 0.0000000E+000, 2.5434300E-002
 5.9000000E+002, 5.2738379E+002, 0.0000000E+000, 2.5434300E-002
 5.9500000E+002, 5.2771338E+002, 0.0000000E+000, 2.5434300E-002
 6.0000000E+002, 5.2802557E+002, 0.0000000E+000, 2.5434300E-002
 6.0500000E+002, 5.2832129E+002, 0.0000000E+000, 2.5434300E-002
 6.1000000E+002, 5.2860138E+002, 0.0000000E+000, 2.5434300E-002
 6.1500000E+002, 5.2886652E+002, 0.0000000E+000, 2.5434300E-002
 6.2000000E+002, 5.2911755E+002, 0.0000000E+000, 2.5434300E-002
 6.2500000E+002, 5.2935510E+002, 0.0000000E+000, 2.5434300E-002
 6.3000000E+002, 5.2957996E+002, 0.0000000E+000, 2.5434300E-002
 6.3500000E+002, 5.2979272E+002, 0.0000000E+000, 2.5434300E-002
 6.4000000E+002, 5.2999408E+002, 0.0000000E+000, 2.5434300E-002
 6.4500000E+002, 5.3018451E+002, 0.0000000E+000, 2.5434300E-002
 6.5000000E+002, 5.3036462E+002, 0.0000000E+000, 2.5434300E-002
 6.5500000E+002, 5.3053503E+002, 0.0000000E+000, 2.5434300E-002
 6.6000000E+002, 5.3069617E+002, 0.0000000E+000, 2.5434300E-002
 6.6500000E+002, 5.3084851E+002, 0.0000000E+000, 2.5434300E-002
 6.7000000E+002, 5.3099255E+002, 0.0000000E+000, 2.5434300E-002
 6.7500000E+002, 5.3112878E+002, 0.0000000E+000, 2.5434300E-002
 6.8000000E+002, 5.3125757E+002, 0.0000000E+000, 2.5434300E-002
 6.8500000E+002, 5.3137927E+002, 0.0000000E+000, 2.5434300E-002
 6.9000000E+002, 5.3149432E+002, 0.0000000E+000, 2.5434300E-002
 6.9500000E+002, 5.3160309E+002, 0.0000000E+000, 2.5434300E-002
 7.0000000E+002, 5.3170587E+002, 0.0000000E+000, 2.5434300E-002
