s,kW,C,kg/s,m,kW/m2
Time,"HRR","temp","MLR","thick","flux"
 0.000E+000, 0.000E+000, 2.000E+001, 0.000E+000, 1.900E-002,-2.233E-009
 2.012E+000, 0.000E+000, 3.474E+001, 5.520E-022, 1.900E-002, 3.424E+001
 4.003E+000, 0.000E+000, 5.781E+001, 6.604E-020, 1.900E-002, 3.507E+001
 6.012E+000, 0.000E+000, 7.476E+001, 2.114E-018, 1.900E-002, 3.514E+001
 8.016E+000, 0.000E+000, 8.880E+001, 3.152E-017, 1.900E-002, 3.518E+001
 1.000E+001, 0.000E+000, 1.009E+002, 2.869E-016, 1.900E-002, 3.522E+001
 1.202E+001, 0.000E+000, 1.118E+002, 1.881E-015, 1.900E-002, 3.525E+001
 1.401E+001, 0.000E+000, 1.216E+002, 9.557E-015, 1.900E-002, 3.527E+001
 1.602E+001, 0.000E+000, 1.306E+002, 3.993E-014, 1.900E-002, 3.530E+001
 1.801E+001, 0.000E+000, 1.391E+002, 1.430E-013, 1.900E-002, 3.533E+001
 2.000E+001, 0.000E+000, 1.469E+002, 4.501E-013, 1.900E-002, 3.535E+001
 2.201E+001, 3.025E-009, 1.544E+002, 1.281E-012, 1.900E-002, 3.541E+001
 2.400E+001, 3.132E-008, 1.616E+002, 3.343E-012, 1.900E-002, 3.547E+001
 2.601E+001, 1.179E-007, 1.682E+002, 8.088E-012, 1.900E-002, 3.543E+001
 2.801E+001, 3.171E-007, 1.745E+002, 1.838E-011, 1.900E-002, 3.545E+001
 3.000E+001, 7.077E-007, 1.807E+002, 3.946E-011, 1.900E-002, 3.551E+001
 3.201E+001, 1.492E-006, 1.867E+002, 8.094E-011, 1.900E-002, 3.556E+001
 3.401E+001, 2.982E-006, 1.926E+002, 1.590E-010, 1.900E-002, 3.561E+001
 3.601E+001, 5.689E-006, 1.981E+002, 3.003E-010, 1.900E-002, 3.562E+001
 3.800E+001, 1.045E-005, 2.036E+002, 5.481E-010, 1.900E-002, 3.569E+001
 4.000E+001, 1.859E-005, 2.087E+002, 9.719E-010, 1.900E-002, 3.565E+001
 4.200E+001, 3.221E-005, 2.137E+002, 1.678E-009, 1.900E-002, 3.569E+001
 4.401E+001, 5.444E-005, 2.186E+002, 2.833E-009, 1.900E-002, 3.567E+001
 4.600E+001, 8.989E-005, 2.233E+002, 4.675E-009, 1.900E-002, 3.569E+001
 4.801E+001, 1.455E-004, 2.281E+002, 7.555E-009, 1.900E-002, 3.577E+001
 5.000E+001, 2.310E-004, 2.327E+002, 1.199E-008, 1.900E-002, 3.578E+001
 5.200E+001, 3.606E-004, 2.373E+002, 1.870E-008, 1.900E-002, 3.582E+001
 5.401E+001, 5.547E-004, 2.418E+002, 2.876E-008, 1.900E-002, 3.585E+001
 5.600E+001, 8.414E-004, 2.462E+002, 4.359E-008, 1.900E-002, 3.584E+001
 5.800E+001, 1.258E-003, 2.505E+002, 6.512E-008, 1.900E-002, 3.587E+001
 6.001E+001, 1.858E-003, 2.548E+002, 9.621E-008, 1.900E-002, 3.595E+001
 6.201E+001, 2.714E-003, 2.590E+002, 1.405E-007, 1.900E-002, 3.595E+001
 6.400E+001, 3.911E-003, 2.628E+002, 2.024E-007, 1.900E-002, 3.584E+001
 6.600E+001, 5.585E-003, 2.670E+002, 2.889E-007, 1.900E-002, 3.599E+001
 6.801E+001, 7.905E-003, 2.711E+002, 4.089E-007, 1.900E-002, 3.602E+001
 7.001E+001, 1.107E-002, 2.748E+002, 5.728E-007, 1.900E-002, 3.593E+001
 7.200E+001, 1.540E-002, 2.786E+002, 7.954E-007, 1.900E-002, 3.600E+001
 7.401E+001, 2.117E-002, 2.821E+002, 1.094E-006, 1.900E-002, 3.587E+001
 7.601E+001, 2.893E-002, 2.858E+002, 1.495E-006, 1.900E-002, 3.595E+001
 7.801E+001, 3.930E-002, 2.898E+002, 2.030E-006, 1.900E-002, 3.608E+001
 8.001E+001, 5.295E-002, 2.934E+002, 2.734E-006, 1.900E-002, 3.602E+001
 8.200E+001, 7.078E-002, 2.971E+002, 3.653E-006, 1.900E-002, 3.612E+001
 8.401E+001, 9.412E-002, 3.005E+002, 4.858E-006, 1.900E-002, 3.606E+001
 8.601E+001, 1.244E-001, 3.040E+002, 6.412E-006, 1.900E-002, 3.603E+001
 8.801E+001, 1.629E-001, 3.070E+002, 8.412E-006, 1.900E-002, 3.594E+001
 9.001E+001, 2.129E-001, 3.106E+002, 1.097E-005, 1.900E-002, 3.608E+001
 9.200E+001, 2.761E-001, 3.140E+002, 1.424E-005, 1.900E-002, 3.608E+001
 9.400E+001, 3.572E-001, 3.174E+002, 1.841E-005, 1.900E-002, 3.620E+001
 9.600E+001, 4.587E-001, 3.206E+002, 2.367E-005, 1.900E-002, 3.611E+001
 9.800E+001, 5.871E-001, 3.239E+002, 3.026E-005, 1.900E-002, 3.626E+001
 1.000E+002, 7.477E-001, 3.277E+002, 3.855E-005, 1.900E-002, 3.644E+001
 1.020E+002, 9.489E-001, 3.314E+002, 4.890E-005, 1.900E-002, 3.658E+001
 1.040E+002, 1.199E+000, 3.351E+002, 6.180E-005, 1.900E-002, 3.682E+001
 1.060E+002, 1.511E+000, 3.388E+002, 7.788E-005, 1.900E-002, 3.698E+001
 1.080E+002, 1.900E+000, 3.419E+002, 9.792E-005, 1.900E-002, 3.678E+001
 1.100E+002, 2.379E+000, 3.454E+002, 1.226E-004, 1.900E-002, 3.730E+001
 1.120E+002, 2.975E+000, 3.496E+002, 1.533E-004, 1.900E-002, 3.765E+001
 1.140E+002, 3.717E+000, 3.537E+002, 1.914E-004, 1.900E-002, 3.788E+001
 1.160E+002, 4.635E+000, 3.571E+002, 2.388E-004, 1.900E-002, 3.823E+001
 1.180E+002, 5.778E+000, 3.612E+002, 2.976E-004, 1.900E-002, 3.858E+001
 1.200E+002, 7.216E+000, 3.655E+002, 3.715E-004, 1.900E-002, 3.963E+001
 1.220E+002, 9.044E+000, 3.706E+002, 4.658E-004, 1.899E-002, 4.055E+001
 1.240E+002, 1.136E+001, 3.761E+002, 5.857E-004, 1.899E-002, 4.278E+001
 1.260E+002, 1.441E+001, 3.826E+002, 7.418E-004, 1.899E-002, 4.507E+001
 1.280E+002, 1.852E+001, 3.893E+002, 9.542E-004, 1.899E-002, 4.932E+001
 1.300E+002, 2.468E+001, 4.010E+002, 1.277E-003, 1.898E-002, 5.701E+001
 1.320E+002, 3.452E+001, 4.143E+002, 1.791E-003, 1.897E-002, 6.493E+001
 1.340E+002, 4.924E+001, 4.246E+002, 2.565E-003, 1.895E-002, 6.901E+001
 1.360E+002, 7.015E+001, 4.311E+002, 3.669E-003, 1.892E-002, 6.929E+001
 1.380E+002, 9.865E+001, 4.346E+002, 5.152E-003, 1.888E-002, 7.028E+001
 1.400E+002, 1.347E+002, 4.361E+002, 6.989E-003, 1.883E-002, 6.842E+001
 1.420E+002, 1.756E+002, 4.357E+002, 9.182E-003, 1.878E-002, 7.138E+001
 1.440E+002, 2.240E+002, 4.371E+002, 1.180E-002, 1.873E-002, 6.961E+001
 1.460E+002, 2.798E+002, 4.375E+002, 1.460E-002, 1.867E-002, 6.893E+001
 1.480E+002, 3.382E+002, 4.407E+002, 1.769E-002, 1.861E-002, 7.329E+001
 1.500E+002, 3.993E+002, 4.412E+002, 2.083E-002, 1.855E-002, 7.042E+001
 1.520E+002, 4.609E+002, 4.380E+002, 2.406E-002, 1.849E-002, 6.724E+001
 1.540E+002, 5.252E+002, 4.360E+002, 2.726E-002, 1.843E-002, 6.650E+001
 1.560E+002, 5.727E+002, 4.374E+002, 2.979E-002, 1.837E-002, 6.787E+001
 1.580E+002, 6.330E+002, 4.398E+002, 3.297E-002, 1.830E-002, 6.967E+001
 1.600E+002, 6.786E+002, 4.389E+002, 3.519E-002, 1.823E-002, 6.631E+001
 1.620E+002, 7.153E+002, 4.379E+002, 3.714E-002, 1.817E-002, 6.644E+001
 1.640E+002, 7.540E+002, 4.370E+002, 3.923E-002, 1.810E-002, 6.629E+001
 1.660E+002, 7.990E+002, 4.384E+002, 4.114E-002, 1.803E-002, 6.730E+001
 1.680E+002, 8.277E+002, 4.396E+002, 4.286E-002, 1.796E-002, 6.749E+001
 1.700E+002, 8.301E+002, 4.401E+002, 4.393E-002, 1.788E-002, 6.629E+001
 1.720E+002, 8.686E+002, 4.379E+002, 4.509E-002, 1.781E-002, 6.668E+001
 1.740E+002, 8.780E+002, 4.391E+002, 4.627E-002, 1.773E-002, 6.693E+001
 1.760E+002, 9.394E+002, 4.404E+002, 4.802E-002, 1.765E-002, 6.778E+001
 1.780E+002, 9.600E+002, 4.413E+002, 5.003E-002, 1.757E-002, 6.769E+001
 1.800E+002, 9.864E+002, 4.393E+002, 5.146E-002, 1.748E-002, 6.709E+001
 1.820E+002, 1.004E+003, 4.406E+002, 5.227E-002, 1.740E-002, 6.810E+001
 1.840E+002, 1.036E+003, 4.417E+002, 5.381E-002, 1.731E-002, 6.773E+001
 1.860E+002, 1.069E+003, 4.411E+002, 5.498E-002, 1.721E-002, 6.840E+001
 1.880E+002, 1.070E+003, 4.411E+002, 5.674E-002, 1.712E-002, 6.796E+001
 1.900E+002, 1.095E+003, 4.420E+002, 5.819E-002, 1.702E-002, 6.810E+001
 1.920E+002, 1.133E+003, 4.423E+002, 5.949E-002, 1.692E-002, 6.783E+001
 1.940E+002, 1.164E+003, 4.414E+002, 6.080E-002, 1.682E-002, 6.938E+001
 1.960E+002, 1.198E+003, 4.432E+002, 6.308E-002, 1.672E-002, 6.982E+001
 1.980E+002, 1.222E+003, 4.437E+002, 6.503E-002, 1.661E-002, 6.932E+001
 2.000E+002, 1.252E+003, 4.427E+002, 6.621E-002, 1.650E-002, 6.969E+001
 2.020E+002, 1.279E+003, 4.439E+002, 6.765E-002, 1.639E-002, 6.952E+001
 2.040E+002, 1.298E+003, 4.441E+002, 6.925E-002, 1.628E-002, 6.947E+001
 2.060E+002, 1.332E+003, 4.436E+002, 7.010E-002, 1.617E-002, 6.923E+001
 2.080E+002, 1.339E+003, 4.455E+002, 7.110E-002, 1.606E-002, 7.032E+001
 2.100E+002, 1.351E+003, 4.451E+002, 7.173E-002, 1.594E-002, 6.964E+001
 2.120E+002, 1.360E+003, 4.461E+002, 7.278E-002, 1.583E-002, 7.024E+001
 2.140E+002, 1.372E+003, 4.477E+002, 7.318E-002, 1.572E-002, 6.928E+001
 2.160E+002, 1.390E+003, 4.481E+002, 7.420E-002, 1.560E-002, 6.933E+001
 2.180E+002, 1.393E+003, 4.511E+002, 7.456E-002, 1.549E-002, 7.049E+001
 2.200E+002, 1.367E+003, 4.546E+002, 7.395E-002, 1.538E-002, 6.958E+001
 2.220E+002, 1.381E+003, 4.591E+002, 7.271E-002, 1.528E-002, 7.084E+001
 2.240E+002, 1.324E+003, 4.664E+002, 7.076E-002, 1.518E-002, 6.974E+001
 2.260E+002, 1.284E+003, 4.775E+002, 6.762E-002, 1.509E-002, 6.976E+001
 2.280E+002, 1.219E+003, 5.076E+002, 6.172E-002, 1.502E-002, 7.023E+001
 2.300E+002, 9.642E+002, 6.815E+002, 4.641E-002, 1.500E-002, 7.068E+001
 2.320E+002, 6.984E+002, 7.005E+002, 3.481E-002, 1.500E-002, 7.110E+001
 2.340E+002, 5.008E+002, 7.010E+002, 2.465E-002, 1.500E-002, 6.941E+001
 2.360E+002, 4.291E+002, 7.165E+002, 2.198E-002, 1.500E-002, 7.273E+001
 2.380E+002, 4.173E+002, 7.223E+002, 2.131E-002, 1.500E-002, 7.265E+001
 2.400E+002, 3.793E+002, 7.227E+002, 1.924E-002, 1.500E-002, 7.186E+001
 2.420E+002, 3.576E+002, 7.254E+002, 1.829E-002, 1.500E-002, 7.261E+001
 2.440E+002, 3.445E+002, 7.216E+002, 1.771E-002, 1.500E-002, 7.073E+001
 2.460E+002, 3.317E+002, 7.255E+002, 1.705E-002, 1.500E-002, 7.200E+001
 2.480E+002, 3.159E+002, 7.163E+002, 1.608E-002, 1.500E-002, 6.953E+001
 2.500E+002, 2.935E+002, 7.249E+002, 1.500E-002, 1.500E-002, 7.141E+001
 2.520E+002, 2.597E+002, 7.123E+002, 1.313E-002, 1.500E-002, 6.768E+001
 2.540E+002, 2.054E+002, 6.966E+002, 1.044E-002, 1.500E-002, 6.383E+001
 2.560E+002, 1.553E+002, 6.467E+002, 7.889E-003, 1.500E-002, 5.182E+001
 2.580E+002, 1.305E+002, 6.100E+002, 6.693E-003, 1.500E-002, 4.663E+001
 2.600E+002, 1.049E+002, 5.820E+002, 5.341E-003, 1.500E-002, 4.328E+001
 2.620E+002, 8.807E+001, 5.592E+002, 4.513E-003, 1.500E-002, 4.077E+001
 2.640E+002, 8.001E+001, 5.509E+002, 4.106E-003, 1.500E-002, 4.018E+001
 2.660E+002, 6.843E+001, 5.379E+002, 3.491E-003, 1.500E-002, 3.900E+001
 2.680E+002, 4.826E+001, 5.268E+002, 2.436E-003, 1.500E-002, 3.770E+001
 2.700E+002, 3.251E+001, 5.260E+002, 1.670E-003, 1.500E-002, 3.744E+001
 2.720E+002, 3.198E+001, 5.203E+002, 1.648E-003, 1.500E-002, 3.716E+001
 2.740E+002, 3.135E+001, 5.233E+002, 1.612E-003, 1.500E-002, 3.746E+001
 2.760E+002, 2.912E+001, 5.213E+002, 1.496E-003, 1.500E-002, 3.734E+001
 2.780E+002, 2.821E+001, 5.186E+002, 1.452E-003, 1.500E-002, 3.708E+001
 2.800E+002, 2.648E+001, 5.191E+002, 1.358E-003, 1.500E-002, 3.720E+001
 2.820E+002, 2.216E+001, 5.155E+002, 1.130E-003, 1.500E-002, 3.692E+001
 2.840E+002, 1.899E+001, 5.125E+002, 9.714E-004, 1.500E-002, 3.665E+001
 2.860E+002, 1.398E+001, 5.183E+002, 7.077E-004, 1.500E-002, 3.693E+001
 2.880E+002, 4.886E+000, 5.211E+002, 2.389E-004, 1.500E-002, 3.696E+001
 2.900E+002, 8.996E-002, 5.248E+002, 3.927E-006, 1.500E-002, 3.712E+001
 2.920E+002, 0.000E+000, 5.201E+002, 0.000E+000, 1.500E-002, 3.674E+001
 2.940E+002, 0.000E+000, 5.228E+002, 0.000E+000, 1.500E-002, 3.700E+001
 2.960E+002, 0.000E+000, 5.257E+002, 0.000E+000, 1.500E-002, 3.712E+001
 2.980E+002, 0.000E+000, 5.289E+002, 0.000E+000, 1.500E-002, 3.733E+001
 3.000E+002, 0.000E+000, 5.263E+002, 0.000E+000, 1.500E-002, 3.712E+001
