s,C,kg/m2/s,m
Time,"temp","MLR","thick"
 0.0000000E+000, 2.0000000E+001, 0.0000000E+000, 1.8500000E-002
 5.0100000E+000, 7.9968056E+001, 4.0825331E-014, 1.8500000E-002
 1.0010000E+001, 1.5404034E+002, 1.1364748E-010, 1.8500000E-002
 1.5010000E+001, 2.0417773E+002, 1.3555614E-008, 1.8500000E-002
 2.0000000E+001, 2.4333495E+002, 3.7217205E-007, 1.8500000E-002
 2.5000000E+001, 2.7570224E+002, 4.4085905E-006, 1.8499991E-002
 3.0000000E+001, 3.0317984E+002, 3.0101537E-005, 1.8499928E-002
 3.5000000E+001, 3.2668091E+002, 1.3837169E-004, 1.8499596E-002
 4.0000000E+001, 3.4661307E+002, 4.6658484E-004, 1.8498339E-002
 4.5010000E+001, 3.6297559E+002, 1.2048588E-003, 1.8494720E-002
 5.0010000E+001, 3.7558612E+002, 2.4364048E-003, 1.8486602E-002
 5.5010000E+001, 3.8461435E+002, 3.9846166E-003, 1.8472064E-002
 6.0010000E+001, 3.8894229E+002, 5.2255848E-003, 1.8451152E-002
 6.5010000E+001, 3.9322214E+002, 6.5977708E-003, 1.8423866E-002
 7.0010000E+001, 3.9589966E+002, 7.7221575E-003, 1.8391518E-002
 7.5000000E+001, 3.9748029E+002, 8.5365241E-003, 1.8354766E-002
 8.0000000E+001, 3.9881491E+002, 9.2631429E-003, 1.8314239E-002
 8.5000000E+001, 3.9999393E+002, 9.9407723E-003, 1.8270491E-002
 9.0000000E+001, 4.0096143E+002, 1.0541520E-002, 1.8223921E-002
 9.5000000E+001, 4.0178818E+002, 1.1086083E-002, 1.8174816E-002
 1.0000000E+002, 4.0235718E+002, 1.1514686E-002, 1.8123413E-002
 1.0500000E+002, 4.0292630E+002, 1.1940142E-002, 1.8069929E-002
 1.1000000E+002, 4.0352609E+002, 1.2382448E-002, 1.8014491E-002
 1.1500000E+002, 4.0408936E+002, 1.2805623E-002, 1.7957214E-002
 1.2000000E+002, 4.0461374E+002, 1.3206449E-002, 1.7898204E-002
 1.2500000E+002, 4.0495465E+002, 1.3506504E-002, 1.7837560E-002
 1.3000000E+002, 4.0520200E+002, 1.3764450E-002, 1.7775498E-002
 1.3500000E+002, 4.0570572E+002, 1.4159642E-002, 1.7711949E-002
 1.4000000E+002, 4.0616574E+002, 1.4522051E-002, 1.7646929E-002
 1.4500000E+002, 4.0617700E+002, 1.4633992E-002, 1.7580640E-002
 1.5000000E+002, 4.0666788E+002, 1.5030906E-002, 1.7513087E-002
 1.5500000E+002, 4.0703278E+002, 1.5338819E-002, 1.7444143E-002
 1.6001000E+002, 4.0710367E+002, 1.5486665E-002, 1.7374014E-002
 1.6501000E+002, 4.0760040E+002, 1.5890023E-002, 1.7302610E-002
 1.7001000E+002, 4.0768671E+002, 1.6031887E-002, 1.7230036E-002
 1.7501000E+002, 4.0806149E+002, 1.6377617E-002, 1.7156372E-002
 1.8001000E+002, 4.0827582E+002, 1.6598258E-002, 1.7081387E-002
 1.8501000E+002, 4.0853006E+002, 1.6875932E-002, 1.7005362E-002
 1.9001000E+002, 4.0879953E+002, 1.7137820E-002, 1.6927997E-002
 1.9501000E+002, 4.0901886E+002, 1.7399622E-002, 1.6849579E-002
 2.0001000E+002, 4.0927127E+002, 1.7657936E-002, 1.6769813E-002
 2.0501000E+002, 4.0953674E+002, 1.7959161E-002, 1.6688962E-002
 2.1001000E+002, 4.0971243E+002, 1.8175498E-002, 1.6606752E-002
 2.1501000E+002, 4.1007986E+002, 1.8555174E-002, 1.6523384E-002
 2.2001000E+002, 4.1013889E+002, 1.8705064E-002, 1.6438689E-002
 2.2501000E+002, 4.0978662E+002, 1.8509990E-002, 1.6352950E-002
 2.3001000E+002, 4.0741986E+002, 1.7140262E-002, 1.6273573E-002
 2.3501000E+002, 4.0862521E+002, 1.8626919E-002, 1.6192069E-002
 2.4001000E+002, 4.0910760E+002, 1.9390570E-002, 1.6105555E-002
 2.4501000E+002, 4.0970596E+002, 2.0066600E-002, 1.6015720E-002
 2.5001000E+002, 4.0991608E+002, 2.0431528E-002, 1.5923733E-002
 2.5501000E+002, 4.1028470E+002, 2.0863380E-002, 1.5829729E-002
 2.6001000E+002, 4.1058636E+002, 2.1267707E-002, 1.5734103E-002
 2.6501000E+002, 4.1077771E+002, 2.1575864E-002, 1.5636643E-002
 2.7001000E+002, 4.1120462E+002, 2.2076270E-002, 1.5537504E-002
 2.7501000E+002, 4.1130481E+002, 2.2349162E-002, 1.5436620E-002
 2.8001000E+002, 4.1163522E+002, 2.2789428E-002, 1.5333838E-002
 2.8501000E+002, 4.1201132E+002, 2.3294229E-002, 1.5229262E-002
 2.9001000E+002, 4.1210968E+002, 2.3596760E-002, 1.5122756E-002
 2.9501000E+002, 4.1242978E+002, 2.4073482E-002, 1.5014214E-002
 3.0001000E+002, 4.1276340E+002, 2.4583613E-002, 1.4903667E-002
 3.0501000E+002, 4.1299075E+002, 2.5033645E-002, 1.4791042E-002
 3.1001000E+002, 4.1319470E+002, 2.5465548E-002, 1.4676206E-002
 3.1501000E+002, 4.1348859E+002, 2.5980184E-002, 1.4559171E-002
 3.2001000E+002, 4.1378143E+002, 2.6508424E-002, 1.4439911E-002
 3.2501000E+002, 4.1403918E+002, 2.7023148E-002, 1.4318393E-002
 3.3001000E+002, 4.1420599E+002, 2.7462056E-002, 1.4194570E-002
 3.3501000E+002, 4.1383517E+002, 2.7494218E-002, 1.4068639E-002
 3.4001000E+002, 4.1194781E+002, 2.7358869E-002, 1.3945701E-002
 3.4501000E+002, 4.1271530E+002, 2.8914625E-002, 1.3817149E-002
 3.5001000E+002, 4.1327081E+002, 2.9711735E-002, 1.3683763E-002
 3.5501000E+002, 4.1347437E+002, 3.0107761E-002, 1.3547838E-002
 3.6001000E+002, 4.1379938E+002, 3.0485127E-002, 1.3409978E-002
 3.6501000E+002, 4.1418900E+002, 3.0874981E-002, 1.3270568E-002
 3.7001000E+002, 4.1435434E+002, 3.1096274E-002, 1.3129778E-002
 3.7501000E+002, 4.1466608E+002, 3.1354796E-002, 1.2987709E-002
 3.8001000E+002, 4.1335391E+002, 3.0901197E-002, 1.2846183E-002
 3.8501000E+002, 4.1350330E+002, 3.1678025E-002, 1.2704163E-002
 3.9001000E+002, 4.1408224E+002, 3.2040887E-002, 1.2559193E-002
 3.9501000E+002, 4.1437753E+002, 3.2197092E-002, 1.2413226E-002
 4.0001000E+002, 4.1484805E+002, 3.2363493E-002, 1.2266418E-002
 4.0501000E+002, 4.1521146E+002, 3.2480128E-002, 1.2119084E-002
 4.1001000E+002, 4.1564453E+002, 3.2564204E-002, 1.1971205E-002
 4.1501000E+002, 4.1607278E+002, 3.2661241E-002, 1.1822992E-002
 4.2001000E+002, 4.1433133E+002, 3.2400936E-002, 1.1675424E-002
 4.2501000E+002, 4.1484631E+002, 3.2892864E-002, 1.1526742E-002
 4.3001000E+002, 4.1569870E+002, 3.2952998E-002, 1.1377028E-002
 4.3501000E+002, 4.1654526E+002, 3.2937460E-002, 1.1227281E-002
 4.4001000E+002, 4.1566589E+002, 3.2632884E-002, 1.1078478E-002
 4.4501000E+002, 4.1718439E+002, 3.2756828E-002, 1.0929643E-002
 4.5001000E+002, 4.1888123E+002, 3.2557685E-002, 1.0781121E-002
 4.5501000E+002, 4.2079630E+002, 3.2142937E-002, 1.0633945E-002
 4.6001000E+002, 4.2219873E+002, 3.1274397E-002, 1.0489777E-002
 4.6501000E+002, 4.2759988E+002, 3.0164614E-002, 1.0349821E-002
 4.7001000E+002, 4.3496078E+002, 2.7361156E-002, 1.0218846E-002
 4.7501000E+002, 4.4979401E+002, 2.3628628E-002, 1.0101711E-002
 4.8001000E+002, 5.2026373E+002, 1.0835159E-002, 1.0015402E-002
 4.8501000E+002, 6.2614349E+002, 0.0000000E+000, 9.9999998E-003
 4.9001000E+002, 6.3923956E+002, 0.0000000E+000, 9.9999998E-003
 4.9501000E+002, 6.4633624E+002, 0.0000000E+000, 9.9999998E-003
 5.0001000E+002, 6.5067096E+002, 0.0000000E+000, 9.9999998E-003
 5.0501000E+002, 6.5323340E+002, 0.0000000E+000, 9.9999998E-003
 5.1001000E+002, 6.5470233E+002, 0.0000000E+000, 9.9999998E-003
 5.1501000E+002, 6.5552881E+002, 0.0000000E+000, 9.9999998E-003
 5.2001000E+002, 6.5598889E+002, 0.0000000E+000, 9.9999998E-003
 5.2501000E+002, 6.5624377E+002, 0.0000000E+000, 9.9999998E-003
 5.3001000E+002, 6.5638440E+002, 0.0000000E+000, 9.9999998E-003
 5.3501000E+002, 6.5646204E+002, 0.0000000E+000, 9.9999998E-003
 5.4001000E+002, 6.5650476E+002, 0.0000000E+000, 9.9999998E-003
 5.4501000E+002, 6.5652820E+002, 0.0000000E+000, 9.9999998E-003
 5.5001000E+002, 6.5654138E+002, 0.0000000E+000, 9.9999998E-003
 5.5501000E+002, 6.5654834E+002, 0.0000000E+000, 9.9999998E-003
 5.6001000E+002, 6.5655200E+002, 0.0000000E+000, 9.9999998E-003
 5.6501000E+002, 6.5655438E+002, 0.0000000E+000, 9.9999998E-003
 5.7001000E+002, 6.5655615E+002, 0.0000000E+000, 9.9999998E-003
 5.7501000E+002, 6.5655615E+002, 0.0000000E+000, 9.9999998E-003
 5.8001000E+002, 6.5655664E+002, 0.0000000E+000, 9.9999998E-003
 5.8501000E+002, 6.5655670E+002, 0.0000000E+000, 9.9999998E-003
 5.9001000E+002, 6.5655664E+002, 0.0000000E+000, 9.9999998E-003
 5.9501000E+002, 6.5655670E+002, 0.0000000E+000, 9.9999998E-003
 6.0001000E+002, 6.5655676E+002, 0.0000000E+000, 9.9999998E-003
 6.0501000E+002, 6.5655664E+002, 0.0000000E+000, 9.9999998E-003
 6.1001000E+002, 6.5655670E+002, 0.0000000E+000, 9.9999998E-003
 6.1501000E+002, 6.5655676E+002, 0.0000000E+000, 9.9999998E-003
 6.2001000E+002, 6.5655670E+002, 0.0000000E+000, 9.9999998E-003
 6.2501000E+002, 6.5655682E+002, 0.0000000E+000, 9.9999998E-003
 6.3001000E+002, 6.5655688E+002, 0.0000000E+000, 9.9999998E-003
 6.3501000E+002, 6.5655688E+002, 0.0000000E+000, 9.9999998E-003
 6.4001000E+002, 6.5655682E+002, 0.0000000E+000, 9.9999998E-003
 6.4501000E+002, 6.5655701E+002, 0.0000000E+000, 9.9999998E-003
 6.5001000E+002, 6.5655682E+002, 0.0000000E+000, 9.9999998E-003
 6.5501000E+002, 6.5655682E+002, 0.0000000E+000, 9.9999998E-003
 6.6001000E+002, 6.5655676E+002, 0.0000000E+000, 9.9999998E-003
 6.6501000E+002, 6.5655676E+002, 0.0000000E+000, 9.9999998E-003
 6.7001000E+002, 6.5655701E+002, 0.0000000E+000, 9.9999998E-003
 6.7501000E+002, 6.5655719E+002, 0.0000000E+000, 9.9999998E-003
 6.8001000E+002, 6.5655713E+002, 0.0000000E+000, 9.9999998E-003
 6.8501000E+002, 6.5655695E+002, 0.0000000E+000, 9.9999998E-003
 6.9001000E+002, 6.5655695E+002, 0.0000000E+000, 9.9999998E-003
 6.9501000E+002, 6.5655701E+002, 0.0000000E+000, 9.9999998E-003
 7.0001000E+002, 6.5655737E+002, 0.0000000E+000, 9.9999998E-003
 7.0501000E+002, 6.5655707E+002, 0.0000000E+000, 9.9999998E-003
 7.1001000E+002, 6.5655701E+002, 0.0000000E+000, 9.9999998E-003
 7.1501000E+002, 6.5655701E+002, 0.0000000E+000, 9.9999998E-003
 7.2001000E+002, 6.5655670E+002, 0.0000000E+000, 9.9999998E-003
 7.2501000E+002, 6.5655688E+002, 0.0000000E+000, 9.9999998E-003
 7.3001000E+002, 6.5655737E+002, 0.0000000E+000, 9.9999998E-003
 7.3501000E+002, 6.5655695E+002, 0.0000000E+000, 9.9999998E-003
 7.4001000E+002, 6.5655676E+002, 0.0000000E+000, 9.9999998E-003
 7.4501000E+002, 6.5655664E+002, 0.0000000E+000, 9.9999998E-003
 7.5001000E+002, 6.5655682E+002, 0.0000000E+000, 9.9999998E-003
 7.5501000E+002, 6.5655707E+002, 0.0000000E+000, 9.9999998E-003
 7.6001000E+002, 6.5655688E+002, 0.0000000E+000, 9.9999998E-003
 7.6501000E+002, 6.5655676E+002, 0.0000000E+000, 9.9999998E-003
 7.7001000E+002, 6.5655664E+002, 0.0000000E+000, 9.9999998E-003
 7.7501000E+002, 6.5655707E+002, 0.0000000E+000, 9.9999998E-003
 7.8001000E+002, 6.5655731E+002, 0.0000000E+000, 9.9999998E-003
 7.8501000E+002, 6.5655707E+002, 0.0000000E+000, 9.9999998E-003
 7.9001000E+002, 6.5655664E+002, 0.0000000E+000, 9.9999998E-003
 7.9501000E+002, 6.5655676E+002, 0.0000000E+000, 9.9999998E-003
 8.0001000E+002, 6.5655676E+002, 0.0000000E+000, 9.9999998E-003
