s,C,kg/m2/s,m
Time,"temp","MLR","thick"
 0.0000000E+000, 2.0000000E+001, 0.0000000E+000, 3.1534299E-002
 5.1000000E+000, 6.0131195E+001, 0.0000000E+000, 3.1534299E-002
 1.0100000E+001, 1.2354285E+002, 0.0000000E+000, 3.1534299E-002
 1.5100000E+001, 1.6176201E+002, 6.0022513E-020, 3.1534299E-002
 2.0000000E+001, 1.9201796E+002, 4.4505573E-017, 3.1534299E-002
 2.5000000E+001, 2.2350012E+002, 9.8687038E-015, 3.1534299E-002
 3.0000000E+001, 2.5173592E+002, 7.6526453E-013, 3.1534299E-002
 3.5000000E+001, 2.7684082E+002, 2.6305432E-011, 3.1534299E-002
 4.0000000E+001, 2.9934000E+002, 4.9169013E-010, 3.1534299E-002
 4.5000000E+001, 3.1968820E+002, 5.8904428E-009, 3.1534299E-002
 5.0000000E+001, 3.3807150E+002, 4.9360459E-008, 3.1534299E-002
 5.5000000E+001, 3.5476483E+002, 3.0752199E-007, 3.1534299E-002
 6.0000000E+001, 3.7005634E+002, 1.5227760E-006, 3.1534296E-002
 6.5000000E+001, 3.8404175E+002, 6.2147474E-006, 3.1534277E-002
 7.0000000E+001, 3.9688080E+002, 2.1532132E-005, 3.1534206E-002
 7.5000000E+001, 4.0866873E+002, 6.4954242E-005, 3.1533986E-002
 8.0100000E+001, 4.1948697E+002, 1.7395361E-004, 3.1533357E-002
 8.5100000E+001, 4.2912808E+002, 4.0836399E-004, 3.1531807E-002
 9.0100000E+001, 4.3728836E+002, 8.3098945E-004, 3.1528477E-002
 9.5100000E+001, 4.4386533E+002, 1.4657265E-003, 3.1522222E-002
 1.0010000E+002, 4.4883871E+002, 2.2529012E-003, 3.1512007E-002
 1.0510000E+002, 4.5244193E+002, 3.0856670E-003, 3.1497296E-002
 1.1010000E+002, 4.5503812E+002, 3.8820696E-003, 3.1478081E-002
 1.1510000E+002, 4.5695581E+002, 4.6090488E-003, 3.1454679E-002
 1.2010000E+002, 4.5842639E+002, 5.2643004E-003, 3.1427488E-002
 1.2510000E+002, 4.5902353E+002, 5.7449141E-003, 3.1397015E-002
 1.3010000E+002, 4.5946857E+002, 6.2311483E-003, 3.1364292E-002
 1.3510000E+002, 4.6048740E+002, 6.8017058E-003, 3.1328410E-002
 1.4010000E+002, 4.6131989E+002, 7.3087560E-003, 3.1289600E-002
 1.4510000E+002, 4.6205161E+002, 7.7932766E-003, 3.1248080E-002
 1.5010000E+002, 4.6271344E+002, 8.2706856E-003, 3.1203920E-002
 1.5510000E+002, 4.6331778E+002, 8.7457579E-003, 3.1157143E-002
 1.6010000E+002, 4.6387033E+002, 9.2190579E-003, 3.1107763E-002
 1.6510000E+002, 4.6310544E+002, 9.5290728E-003, 3.1056216E-002
 1.7010000E+002, 4.6369138E+002, 1.0041586E-002, 3.1002475E-002
 1.7510000E+002, 4.6427896E+002, 1.0560366E-002, 3.0945834E-002
 1.8010000E+002, 4.6480103E+002, 1.1055803E-002, 3.0886414E-002
 1.8510000E+002, 4.6526874E+002, 1.1535664E-002, 3.0824317E-002
 1.9010000E+002, 4.6497986E+002, 1.1896646E-002, 3.0759795E-002
 1.9510000E+002, 4.6501462E+002, 1.2331683E-002, 3.0693369E-002
 2.0010000E+002, 4.6551071E+002, 1.2852544E-002, 3.0624134E-002
 2.0510000E+002, 4.6594769E+002, 1.3340218E-002, 3.0552138E-002
 2.1010000E+002, 4.6615482E+002, 1.3781334E-002, 3.0477535E-002
 2.1510000E+002, 4.6566983E+002, 1.4103485E-002, 3.0401006E-002
 2.2010000E+002, 4.6611874E+002, 1.4630335E-002, 3.0322025E-002
 2.2510000E+002, 4.6651898E+002, 1.5117123E-002, 3.0240258E-002
 2.3010000E+002, 4.6656854E+002, 1.5523872E-002, 3.0155944E-002
 2.3510000E+002, 4.6626849E+002, 1.5886132E-002, 3.0069778E-002
 2.4010000E+002, 4.6667249E+002, 1.6397752E-002, 2.9981032E-002
 2.4510000E+002, 4.6702649E+002, 1.6862221E-002, 2.9889617E-002
 2.5010000E+002, 4.6660852E+002, 1.7170912E-002, 2.9796038E-002
 2.5510000E+002, 4.6681259E+002, 1.7636426E-002, 2.9700467E-002
 2.6010000E+002, 4.6716177E+002, 1.8088512E-002, 2.9602271E-002
 2.6510000E+002, 4.6695871E+002, 1.8399483E-002, 2.9501891E-002
 2.7010000E+002, 4.6695337E+002, 1.8779283E-002, 2.9399861E-002
 2.7510000E+002, 4.6729068E+002, 1.9178972E-002, 2.9295521E-002
 2.8010000E+002, 4.6711432E+002, 1.9424990E-002, 2.9189326E-002
 2.8510000E+002, 4.6709256E+002, 1.9722356E-002, 2.9081883E-002
 2.9010000E+002, 4.6741422E+002, 2.0028312E-002, 2.8972622E-002
 2.9510000E+002, 4.6714798E+002, 2.0165078E-002, 2.8862095E-002
 3.0010000E+002, 4.6722900E+002, 2.0393509E-002, 2.8750747E-002
 3.0500000E+002, 4.6753308E+002, 2.0599157E-002, 2.8639214E-002
 3.1000000E+002, 4.6712021E+002, 2.0634353E-002, 2.8527047E-002
 3.1500000E+002, 4.6736343E+002, 2.0825770E-002, 2.8413154E-002
 3.2000000E+002, 4.6755740E+002, 2.0943664E-002, 2.8298322E-002
 3.2500000E+002, 4.6718506E+002, 2.0956015E-002, 2.8183304E-002
 3.3000000E+002, 4.6751205E+002, 2.1116568E-002, 2.8067671E-002
 3.3500000E+002, 4.6747763E+002, 2.1148808E-002, 2.7951442E-002
 3.4000000E+002, 4.6736810E+002, 2.1214072E-002, 2.7835188E-002
 3.4500000E+002, 4.6769736E+002, 2.1326475E-002, 2.7718274E-002
 3.5000000E+002, 4.6745105E+002, 2.1302341E-002, 2.7601108E-002
 3.5500000E+002, 4.6760077E+002, 2.1402119E-002, 2.7483849E-002
 3.6000000E+002, 4.6788580E+002, 2.1456588E-002, 2.7366053E-002
 3.6500000E+002, 4.6754587E+002, 2.1417707E-002, 2.7248340E-002
 3.7000000E+002, 4.6793683E+002, 2.1504924E-002, 2.7130362E-002
 3.7500000E+002, 4.6801675E+002, 2.1475838E-002, 2.7012208E-002
 3.8000000E+002, 4.6801767E+002, 2.1480430E-002, 2.6894283E-002
 3.8500000E+002, 4.6848868E+002, 2.1481542E-002, 2.6776217E-002
 3.9000000E+002, 4.6846613E+002, 2.1394581E-002, 2.6658405E-002
 3.9500000E+002, 4.6890347E+002, 2.1358965E-002, 2.6540963E-002
 4.0000000E+002, 4.6954926E+002, 2.1270745E-002, 2.6423825E-002
 4.0500000E+002, 4.6983063E+002, 2.1093579E-002, 2.6307466E-002
 4.1000000E+002, 4.7092197E+002, 2.0961821E-002, 2.6191900E-002
 4.1500000E+002, 4.7218817E+002, 2.0713614E-002, 2.6077300E-002
 4.2000000E+002, 4.7391595E+002, 2.0420855E-002, 2.5964404E-002
 4.2500000E+002, 4.7653180E+002, 2.0141799E-002, 2.5852937E-002
 4.3000000E+002, 4.8089435E+002, 1.9557262E-002, 2.5743650E-002
 4.3500000E+002, 4.8705408E+002, 1.9088319E-002, 2.5637690E-002
 4.4000000E+002, 4.9676224E+002, 1.8351313E-002, 2.5534593E-002
 4.4500000E+002, 5.2245734E+002, 9.1979131E-003, 2.5447862E-002
 4.5000000E+002, 5.1866962E+002, 0.0000000E+000, 2.5434300E-002
 4.5500000E+002, 5.1368542E+002, 0.0000000E+000, 2.5434300E-002
 4.6000000E+002, 5.1233221E+002, 0.0000000E+000, 2.5434300E-002
 4.6500000E+002, 5.1217944E+002, 0.0000000E+000, 2.5434300E-002
 4.7000000E+002, 5.1255865E+002, 0.0000000E+000, 2.5434300E-002
 4.7500000E+002, 5.1319928E+002, 0.0000000E+000, 2.5434300E-002
 4.8000000E+002, 5.1396912E+002, 0.0000000E+000, 2.5434300E-002
 4.8500000E+002, 5.1479779E+002, 0.0000000E+000, 2.5434300E-002
 4.9000000E+002, 5.1564606E+002, 0.0000000E+000, 2.5434300E-002
 4.9500000E+002, 5.1649109E+002, 0.0000000E+000, 2.5434300E-002
 5.0000000E+002, 5.1731964E+002, 0.0000000E+000, 2.5434300E-002
 5.0500000E+002, 5.1812390E+002, 0.0000000E+000, 2.5434300E-002
 5.1000000E+002, 5.1889948E+002, 0.0000000E+000, 2.5434300E-002
 5.1500000E+002, 5.1964410E+002, 0.0000000E+000, 2.5434300E-002
 5.2000000E+002, 5.2035681E+002, 0.0000000E+000, 2.5434300E-002
 5.2500000E+002, 5.2103754E+002, 0.0000000E+000, 2.5434300E-002
 5.3000000E+002, 5.2168658E+002, 0.0000000E+000, 2.5434300E-002
 5.3500000E+002, 5.2230475E+002, 0.0000000E+000, 2.5434300E-002
 5.4000000E+002, 5.2289294E+002, 0.0000000E+000, 2.5434300E-002
 5.4500000E+002, 5.2345221E+002, 0.0000000E+000, 2.5434300E-002
 5.5000000E+002, 5.2398370E+002, 0.0000000E+000, 2.5434300E-002
 5.5500000E+002, 5.2448846E+002, 0.0000000E+000, 2.5434300E-002
 5.6000000E+002, 5.2496777E+002, 0.0000000E+000, 2.5434300E-002
 5.6500000E+002, 5.2542261E+002, 0.0000000E+000, 2.5434300E-002
 5.7000000E+002, 5.2585413E+002, 0.0000000E+000, 2.5434300E-002
 5.7500000E+002, 5.2626343E+002, 0.0000000E+000, 2.5434300E-002
 5.8000000E+002, 5.2665155E+002, 0.0000000E+000, 2.5434300E-002
 5.8500000E+002, 5.2701947E+002, 0.0000000E+000, 2.5434300E-002
 5.9000000E+002, 5.2736816E+002, 0.0000000E+000, 2.5434300E-002
 5.9500000E+002, 5.2769861E+002, 0.0000000E+000, 2.5434300E-002
 6.0000000E+002, 5.2801160E+002, 0.0000000E+000, 2.5434300E-002
 6.0500000E+002, 5.2830804E+002, 0.0000000E+000, 2.5434300E-002
 6.1000000E+002, 5.2858881E+002, 0.0000000E+000, 2.5434300E-002
 6.1500000E+002, 5.2885461E+002, 0.0000000E+000, 2.5434300E-002
 6.2000000E+002, 5.2910626E+002, 0.0000000E+000, 2.5434300E-002
 6.2500000E+002, 5.2934448E+002, 0.0000000E+000, 2.5434300E-002
 6.3000000E+002, 5.2956989E+002, 0.0000000E+000, 2.5434300E-002
 6.3500000E+002, 5.2978320E+002, 0.0000000E+000, 2.5434300E-002
 6.4000000E+002, 5.2998505E+002, 0.0000000E+000, 2.5434300E-002
 6.4500000E+002, 5.3017596E+002, 0.0000000E+000, 2.5434300E-002
 6.5000000E+002, 5.3035657E+002, 0.0000000E+000, 2.5434300E-002
 6.5500000E+002, 5.3052734E+002, 0.0000000E+000, 2.5434300E-002
 6.6000000E+002, 5.3068890E+002, 0.0000000E+000, 2.5434300E-002
 6.6500000E+002, 5.3084167E+002, 0.0000000E+000, 2.5434300E-002
 6.7000000E+002, 5.3098608E+002, 0.0000000E+000, 2.5434300E-002
 6.7500000E+002, 5.3112268E+002, 0.0000000E+000, 2.5434300E-002
 6.8000000E+002, 5.3125177E+002, 0.0000000E+000, 2.5434300E-002
 6.8500000E+002, 5.3137378E+002, 0.0000000E+000, 2.5434300E-002
 6.9000000E+002, 5.3148914E+002, 0.0000000E+000, 2.5434300E-002
 6.9500000E+002, 5.3159821E+002, 0.0000000E+000, 2.5434300E-002
 7.0000000E+002, 5.3170123E+002, 0.0000000E+000, 2.5434300E-002
