s,kW,C,kg/s,m,kW/m2
Time,"HRR","temp","MLR","thick","flux"
 0.000E+00, 0.000E+00, 2.000E+01, 0.000E+00, 1.900E-02,-4.758E-11
 2.012E+00, 0.000E+00, 5.195E+01, 2.369E-19, 1.900E-02, 7.004E+01
 4.003E+00, 0.000E+00, 9.723E+01, 4.343E-16, 1.900E-02, 7.021E+01
 6.006E+00, 0.000E+00, 1.304E+02, 6.802E-14, 1.900E-02, 7.034E+01
 8.007E+00, 3.307E-08, 1.577E+02, 2.828E-12, 1.900E-02, 7.038E+01
 1.001E+01, 9.465E-07, 1.813E+02, 5.299E-11, 1.900E-02, 7.049E+01
 1.201E+01, 1.049E-05, 2.023E+02, 5.739E-10, 1.900E-02, 7.057E+01
 1.401E+01, 7.807E-05, 2.211E+02, 4.205E-09, 1.900E-02, 7.065E+01
 1.601E+01, 4.329E-04, 2.386E+02, 2.312E-08, 1.900E-02, 7.080E+01
 1.801E+01, 1.908E-03, 2.547E+02, 1.013E-07, 1.900E-02, 7.090E+01
 2.001E+01, 7.017E-03, 2.693E+02, 3.712E-07, 1.900E-02, 7.084E+01
 2.201E+01, 2.229E-02, 2.830E+02, 1.175E-06, 1.900E-02, 7.095E+01
 2.400E+01, 6.272E-02, 2.964E+02, 3.297E-06, 1.900E-02, 7.117E+01
 2.601E+01, 1.600E-01, 3.086E+02, 8.389E-06, 1.900E-02, 7.123E+01
 2.800E+01, 3.747E-01, 3.202E+02, 1.961E-05, 1.900E-02, 7.136E+01
 3.001E+01, 8.188E-01, 3.314E+02, 4.279E-05, 1.900E-02, 7.153E+01
 3.200E+01, 1.689E+00, 3.423E+02, 8.815E-05, 1.900E-02, 7.214E+01
 3.400E+01, 3.326E+00, 3.537E+02, 1.734E-04, 1.900E-02, 7.308E+01
 3.601E+01, 6.359E+00, 3.659E+02, 3.312E-04, 1.900E-02, 7.514E+01
 3.800E+01, 1.192E+01, 3.801E+02, 6.206E-04, 1.900E-02, 8.219E+01
 4.000E+01, 2.271E+01, 4.001E+02, 1.192E-03, 1.899E-02, 9.415E+01
 4.200E+01, 4.643E+01, 4.198E+02, 2.459E-03, 1.898E-02, 1.003E+02
 4.400E+01, 9.395E+01, 4.316E+02, 5.034E-03, 1.896E-02, 9.998E+01
 4.600E+01, 1.793E+02, 4.375E+02, 9.559E-03, 1.892E-02, 9.978E+01
 4.800E+01, 3.011E+02, 4.414E+02, 1.611E-02, 1.888E-02, 1.012E+02
 5.000E+01, 4.404E+02, 4.444E+02, 2.385E-02, 1.883E-02, 1.005E+02
 5.200E+01, 5.945E+02, 4.417E+02, 3.138E-02, 1.877E-02, 1.030E+02
 5.400E+01, 7.246E+02, 4.447E+02, 3.786E-02, 1.871E-02, 1.029E+02
 5.600E+01, 8.241E+02, 4.475E+02, 4.274E-02, 1.864E-02, 1.040E+02
 5.800E+01, 8.848E+02, 4.520E+02, 4.655E-02, 1.857E-02, 1.096E+02
 6.000E+01, 9.553E+02, 4.495E+02, 4.968E-02, 1.849E-02, 1.053E+02
 6.200E+01, 1.007E+03, 4.490E+02, 5.248E-02, 1.841E-02, 1.088E+02
 6.400E+01, 1.043E+03, 4.521E+02, 5.549E-02, 1.832E-02, 1.103E+02
 6.600E+01, 1.094E+03, 4.533E+02, 5.693E-02, 1.823E-02, 1.080E+02
 6.800E+01, 1.115E+03, 4.507E+02, 5.778E-02, 1.814E-02, 1.098E+02
 7.000E+01, 1.094E+03, 4.508E+02, 5.834E-02, 1.805E-02, 1.047E+02
 7.200E+01, 1.154E+03, 4.524E+02, 6.052E-02, 1.796E-02, 1.062E+02
 7.400E+01, 1.199E+03, 4.524E+02, 6.303E-02, 1.786E-02, 1.066E+02
 7.600E+01, 1.223E+03, 4.507E+02, 6.396E-02, 1.776E-02, 1.056E+02
 7.800E+01, 1.240E+03, 4.534E+02, 6.678E-02, 1.766E-02, 1.065E+02
 8.000E+01, 1.306E+03, 4.544E+02, 6.988E-02, 1.755E-02, 1.078E+02
 8.200E+01, 1.351E+03, 4.523E+02, 7.146E-02, 1.744E-02, 1.064E+02
 8.400E+01, 1.398E+03, 4.551E+02, 7.521E-02, 1.733E-02, 1.075E+02
 8.600E+01, 1.433E+03, 4.544E+02, 7.808E-02, 1.721E-02, 1.074E+02
 8.800E+01, 1.538E+03, 4.556E+02, 8.348E-02, 1.708E-02, 1.099E+02
 9.000E+01, 1.557E+03, 4.566E+02, 8.811E-02, 1.694E-02, 1.077E+02
 9.200E+01, 1.666E+03, 4.556E+02, 9.300E-02, 1.679E-02, 1.094E+02
 9.400E+01, 1.791E+03, 4.576E+02, 9.993E-02, 1.664E-02, 1.083E+02
 9.600E+01, 1.774E+03, 4.562E+02, 1.049E-01, 1.647E-02, 1.069E+02
 9.800E+01, 1.957E+03, 4.575E+02, 1.119E-01, 1.630E-02, 1.078E+02
 1.000E+02, 2.018E+03, 4.580E+02, 1.193E-01, 1.611E-02, 1.079E+02
 1.020E+02, 2.085E+03, 4.587E+02, 1.247E-01, 1.592E-02, 1.086E+02
 1.040E+02, 2.174E+03, 4.608E+02, 1.296E-01, 1.572E-02, 1.088E+02
 1.060E+02, 2.155E+03, 4.620E+02, 1.287E-01, 1.553E-02, 1.075E+02
 1.080E+02, 2.152E+03, 4.688E+02, 1.282E-01, 1.533E-02, 1.093E+02
 1.100E+02, 1.951E+03, 4.810E+02, 1.160E-01, 1.516E-02, 1.094E+02
 1.120E+02, 1.738E+03, 5.711E+02, 8.449E-02, 1.503E-02, 1.109E+02
 1.140E+02, 8.540E+02, 8.051E+02, 3.977E-02, 1.500E-02, 1.113E+02
 1.160E+02, 4.433E+02, 8.270E+02, 2.084E-02, 1.500E-02, 1.130E+02
 1.180E+02, 2.302E+02, 7.880E+02, 1.153E-02, 1.500E-02, 9.723E+01
 1.200E+02, 1.614E+02, 7.569E+02, 8.141E-03, 1.500E-02, 8.765E+01
 1.220E+02, 7.766E+01, 6.957E+02, 3.920E-03, 1.500E-02, 7.552E+01
 1.240E+02, 5.572E+01, 6.919E+02, 2.847E-03, 1.500E-02, 7.525E+01
 1.260E+02, 4.189E+01, 6.815E+02, 2.134E-03, 1.500E-02, 7.407E+01
 1.280E+02, 5.922E+00, 6.673E+02, 2.726E-04, 1.500E-02, 7.182E+01
 1.300E+02, 0.000E+00, 6.718E+02, 0.000E+00, 1.500E-02, 7.216E+01
 1.320E+02, 0.000E+00, 6.807E+02, 0.000E+00, 1.500E-02, 7.285E+01
 1.340E+02, 0.000E+00, 6.825E+02, 0.000E+00, 1.500E-02, 7.299E+01
 1.360E+02, 0.000E+00, 6.871E+02, 0.000E+00, 1.500E-02, 7.329E+01
 1.380E+02, 0.000E+00, 6.789E+02, 0.000E+00, 1.500E-02, 7.274E+01
 1.400E+02, 0.000E+00, 6.759E+02, 0.000E+00, 1.500E-02, 7.251E+01
 1.420E+02, 0.000E+00, 6.783E+02, 0.000E+00, 1.500E-02, 7.273E+01
 1.440E+02, 0.000E+00, 6.810E+02, 0.000E+00, 1.500E-02, 7.294E+01
 1.460E+02, 0.000E+00, 6.803E+02, 0.000E+00, 1.500E-02, 7.285E+01
 1.480E+02, 0.000E+00, 6.807E+02, 0.000E+00, 1.500E-02, 7.286E+01
 1.500E+02, 0.000E+00, 6.837E+02, 0.000E+00, 1.500E-02, 7.309E+01
 1.520E+02, 0.000E+00, 6.828E+02, 0.000E+00, 1.500E-02, 7.301E+01
 1.540E+02, 0.000E+00, 6.837E+02, 0.000E+00, 1.500E-02, 7.311E+01
 1.560E+02, 0.000E+00, 6.806E+02, 0.000E+00, 1.500E-02, 7.285E+01
 1.580E+02, 0.000E+00, 6.868E+02, 0.000E+00, 1.500E-02, 7.329E+01
 1.600E+02, 0.000E+00, 6.781E+02, 0.000E+00, 1.500E-02, 7.269E+01
 1.620E+02, 0.000E+00, 6.823E+02, 0.000E+00, 1.500E-02, 7.299E+01
 1.640E+02, 0.000E+00, 6.854E+02, 0.000E+00, 1.500E-02, 7.319E+01
 1.660E+02, 0.000E+00, 6.779E+02, 0.000E+00, 1.500E-02, 7.266E+01
 1.680E+02, 0.000E+00, 6.786E+02, 0.000E+00, 1.500E-02, 7.271E+01
 1.700E+02, 0.000E+00, 6.832E+02, 0.000E+00, 1.500E-02, 7.307E+01
 1.720E+02, 0.000E+00, 6.850E+02, 0.000E+00, 1.500E-02, 7.316E+01
 1.740E+02, 0.000E+00, 6.795E+02, 0.000E+00, 1.500E-02, 7.277E+01
 1.760E+02, 0.000E+00, 6.769E+02, 0.000E+00, 1.500E-02, 7.259E+01
 1.780E+02, 0.000E+00, 6.831E+02, 0.000E+00, 1.500E-02, 7.305E+01
 1.800E+02, 0.000E+00, 6.863E+02, 0.000E+00, 1.500E-02, 7.327E+01
 1.820E+02, 0.000E+00, 6.824E+02, 0.000E+00, 1.500E-02, 7.298E+01
 1.840E+02, 0.000E+00, 6.849E+02, 0.000E+00, 1.500E-02, 7.313E+01
 1.860E+02, 0.000E+00, 6.841E+02, 0.000E+00, 1.500E-02, 7.310E+01
 1.880E+02, 0.000E+00, 6.756E+02, 0.000E+00, 1.500E-02, 7.250E+01
 1.900E+02, 0.000E+00, 6.764E+02, 0.000E+00, 1.500E-02, 7.260E+01
 1.920E+02, 0.000E+00, 6.780E+02, 0.000E+00, 1.500E-02, 7.266E+01
 1.940E+02, 0.000E+00, 6.780E+02, 0.000E+00, 1.500E-02, 7.272E+01
 1.960E+02, 0.000E+00, 6.815E+02, 0.000E+00, 1.500E-02, 7.298E+01
 1.980E+02, 0.000E+00, 6.753E+02, 0.000E+00, 1.500E-02, 7.248E+01
 2.000E+02, 0.000E+00, 6.787E+02, 0.000E+00, 1.500E-02, 7.273E+01
 2.020E+02, 0.000E+00, 6.797E+02, 0.000E+00, 1.500E-02, 7.284E+01
 2.040E+02, 0.000E+00, 6.719E+02, 0.000E+00, 1.500E-02, 7.222E+01
 2.060E+02, 0.000E+00, 6.788E+02, 0.000E+00, 1.500E-02, 7.281E+01
 2.080E+02, 0.000E+00, 6.769E+02, 0.000E+00, 1.500E-02, 7.264E+01
 2.100E+02, 0.000E+00, 6.766E+02, 0.000E+00, 1.500E-02, 7.259E+01
 2.120E+02, 0.000E+00, 6.830E+02, 0.000E+00, 1.500E-02, 7.306E+01
 2.140E+02, 0.000E+00, 6.817E+02, 0.000E+00, 1.500E-02, 7.299E+01
 2.160E+02, 0.000E+00, 6.855E+02, 0.000E+00, 1.500E-02, 7.323E+01
 2.180E+02, 0.000E+00, 6.822E+02, 0.000E+00, 1.500E-02, 7.296E+01
 2.200E+02, 0.000E+00, 6.853E+02, 0.000E+00, 1.500E-02, 7.319E+01
 2.220E+02, 0.000E+00, 6.821E+02, 0.000E+00, 1.500E-02, 7.298E+01
 2.240E+02, 0.000E+00, 6.844E+02, 0.000E+00, 1.500E-02, 7.311E+01
 2.260E+02, 0.000E+00, 6.759E+02, 0.000E+00, 1.500E-02, 7.251E+01
 2.280E+02, 0.000E+00, 6.840E+02, 0.000E+00, 1.500E-02, 7.311E+01
 2.300E+02, 0.000E+00, 6.804E+02, 0.000E+00, 1.500E-02, 7.285E+01
 2.320E+02, 0.000E+00, 6.739E+02, 0.000E+00, 1.500E-02, 7.238E+01
 2.340E+02, 0.000E+00, 6.830E+02, 0.000E+00, 1.500E-02, 7.305E+01
 2.360E+02, 0.000E+00, 6.875E+02, 0.000E+00, 1.500E-02, 7.332E+01
 2.380E+02, 0.000E+00, 6.832E+02, 0.000E+00, 1.500E-02, 7.305E+01
 2.400E+02, 0.000E+00, 6.807E+02, 0.000E+00, 1.500E-02, 7.285E+01
 2.420E+02, 0.000E+00, 6.812E+02, 0.000E+00, 1.500E-02, 7.293E+01
 2.440E+02, 0.000E+00, 6.808E+02, 0.000E+00, 1.500E-02, 7.286E+01
 2.460E+02, 0.000E+00, 6.783E+02, 0.000E+00, 1.500E-02, 7.275E+01
 2.480E+02, 0.000E+00, 6.703E+02, 0.000E+00, 1.500E-02, 7.209E+01
 2.500E+02, 0.000E+00, 6.801E+02, 0.000E+00, 1.500E-02, 7.290E+01
 2.520E+02, 0.000E+00, 6.830E+02, 0.000E+00, 1.500E-02, 7.306E+01
 2.540E+02, 0.000E+00, 6.743E+02, 0.000E+00, 1.500E-02, 7.236E+01
 2.560E+02, 0.000E+00, 6.803E+02, 0.000E+00, 1.500E-02, 7.289E+01
 2.580E+02, 0.000E+00, 6.829E+02, 0.000E+00, 1.500E-02, 7.306E+01
 2.600E+02, 0.000E+00, 6.842E+02, 0.000E+00, 1.500E-02, 7.308E+01
 2.620E+02, 0.000E+00, 6.853E+02, 0.000E+00, 1.500E-02, 7.320E+01
 2.640E+02, 0.000E+00, 6.804E+02, 0.000E+00, 1.500E-02, 7.281E+01
 2.660E+02, 0.000E+00, 6.793E+02, 0.000E+00, 1.500E-02, 7.279E+01
 2.680E+02, 0.000E+00, 6.729E+02, 0.000E+00, 1.500E-02, 7.230E+01
 2.700E+02, 0.000E+00, 6.789E+02, 0.000E+00, 1.500E-02, 7.278E+01
 2.720E+02, 0.000E+00, 6.816E+02, 0.000E+00, 1.500E-02, 7.297E+01
 2.740E+02, 0.000E+00, 6.806E+02, 0.000E+00, 1.500E-02, 7.283E+01
 2.760E+02, 0.000E+00, 6.870E+02, 0.000E+00, 1.500E-02, 7.330E+01
 2.780E+02, 0.000E+00, 6.848E+02, 0.000E+00, 1.500E-02, 7.317E+01
 2.800E+02, 0.000E+00, 6.833E+02, 0.000E+00, 1.500E-02, 7.302E+01
 2.820E+02, 0.000E+00, 6.766E+02, 0.000E+00, 1.500E-02, 7.257E+01
 2.840E+02, 0.000E+00, 6.844E+02, 0.000E+00, 1.500E-02, 7.313E+01
 2.860E+02, 0.000E+00, 6.868E+02, 0.000E+00, 1.500E-02, 7.328E+01
 2.880E+02, 0.000E+00, 6.870E+02, 0.000E+00, 1.500E-02, 7.329E+01
 2.900E+02, 0.000E+00, 6.810E+02, 0.000E+00, 1.500E-02, 7.285E+01
 2.920E+02, 0.000E+00, 6.822E+02, 0.000E+00, 1.500E-02, 7.299E+01
 2.940E+02, 0.000E+00, 6.818E+02, 0.000E+00, 1.500E-02, 7.297E+01
 2.960E+02, 0.000E+00, 6.797E+02, 0.000E+00, 1.500E-02, 7.282E+01
 2.980E+02, 0.000E+00, 6.794E+02, 0.000E+00, 1.500E-02, 7.277E+01
 3.000E+02, 0.000E+00, 6.810E+02, 0.000E+00, 1.500E-02, 7.290E+01
