s,C,kg/m2/s,m
Time,"temp","MLR","thick"
 0.0000000E+000, 2.0000000E+001, 0.0000000E+000, 3.1534299E-002
 5.1000000E+000, 7.3523575E+001, 0.0000000E+000, 3.1534299E-002
 1.0100000E+001, 1.3845027E+002, 1.1328330E-022, 3.1534299E-002
 1.5100000E+001, 1.6999677E+002, 7.7472883E-019, 3.1534299E-002
 2.0000000E+001, 2.0405710E+002, 5.0281077E-016, 3.1534299E-002
 2.5000000E+001, 2.3507228E+002, 7.9264937E-014, 3.1534299E-002
 3.0000000E+001, 2.6234622E+002, 4.1718079E-012, 3.1534299E-002
 3.5000000E+001, 2.8655191E+002, 1.0943254E-010, 3.1534299E-002
 4.0000000E+001, 3.0789529E+002, 1.6562929E-009, 3.1534299E-002
 4.5000000E+001, 3.2705255E+002, 1.6047961E-008, 3.1534299E-002
 5.0000000E+001, 3.4442212E+002, 1.1408219E-007, 3.1534299E-002
 5.5000000E+001, 3.6011035E+002, 6.1548883E-007, 3.1534299E-002
 6.0000000E+001, 3.7449933E+002, 2.7080755E-006, 3.1534292E-002
 6.5000000E+001, 3.8763165E+002, 9.9500485E-006, 3.1534258E-002
 7.0000000E+001, 3.9972559E+002, 3.1647134E-005, 3.1534154E-002
 7.5000000E+001, 4.1079294E+002, 8.8336994E-005, 3.1533845E-002
 8.0100000E+001, 4.2096268E+002, 2.2123914E-004, 3.1533025E-002
 8.5100000E+001, 4.2999838E+002, 4.8958010E-004, 3.1531118E-002
 9.0100000E+001, 4.3764981E+002, 9.4849389E-004, 3.1527240E-002
 9.5100000E+001, 4.4384329E+002, 1.6111739E-003, 3.1520255E-002
 1.0010000E+002, 4.4857785E+002, 2.4137674E-003, 3.1509195E-002
 1.0510000E+002, 4.5205972E+002, 3.2536080E-003, 3.1493574E-002
 1.1010000E+002, 4.5460303E+002, 4.0520267E-003, 3.1473428E-002
 1.1510000E+002, 4.5649936E+002, 4.7759404E-003, 3.1449098E-002
 1.2010000E+002, 4.5723438E+002, 5.2748355E-003, 3.1421173E-002
 1.2510000E+002, 4.5764493E+002, 5.7476009E-003, 3.1391166E-002
 1.3010000E+002, 4.5892761E+002, 6.3844509E-003, 3.1357739E-002
 1.3510000E+002, 4.5993661E+002, 6.9319615E-003, 3.1321101E-002
 1.4010000E+002, 4.6080270E+002, 7.4411137E-003, 3.1281576E-002
 1.4510000E+002, 4.6157187E+002, 7.9304408E-003, 3.1239310E-002
 1.5010000E+002, 4.6226431E+002, 8.4069613E-003, 3.1194396E-002
 1.5510000E+002, 4.6289072E+002, 8.8731600E-003, 3.1146893E-002
 1.6010000E+002, 4.6345825E+002, 9.3299076E-003, 3.1096857E-002
 1.6510000E+002, 4.6393582E+002, 9.7776363E-003, 3.1044334E-002
 1.7010000E+002, 4.6253754E+002, 9.9833403E-003, 3.0990023E-002
 1.7510000E+002, 4.6316592E+002, 1.0479243E-002, 3.0933825E-002
 1.8010000E+002, 4.6378204E+002, 1.0978249E-002, 3.0874833E-002
 1.8510000E+002, 4.6433020E+002, 1.1446064E-002, 3.0813189E-002
 1.9010000E+002, 4.6482083E+002, 1.1891615E-002, 3.0749042E-002
 1.9510000E+002, 4.6526199E+002, 1.2321188E-002, 3.0682493E-002
 2.0010000E+002, 4.6469431E+002, 1.2596512E-002, 3.0613841E-002
 2.0510000E+002, 4.6445929E+002, 1.2947615E-002, 3.0543871E-002
 2.1010000E+002, 4.6498837E+002, 1.3443873E-002, 3.0471319E-002
 2.1510000E+002, 4.6545932E+002, 1.3899724E-002, 3.0396160E-002
 2.2010000E+002, 4.6587900E+002, 1.4329109E-002, 3.0318575E-002
 2.2510000E+002, 4.6583765E+002, 1.4675458E-002, 3.0238731E-002
 2.3010000E+002, 4.6513626E+002, 1.4925366E-002, 3.0157583E-002
 2.3510000E+002, 4.6561798E+002, 1.5427580E-002, 3.0074149E-002
 2.4010000E+002, 4.6605200E+002, 1.5882721E-002, 2.9988088E-002
 2.4510000E+002, 4.6643738E+002, 1.6306380E-002, 2.9899623E-002
 2.5010000E+002, 4.6589655E+002, 1.6555769E-002, 2.9809164E-002
 2.5510000E+002, 4.6580438E+002, 1.6945124E-002, 2.9717315E-002
 2.6010000E+002, 4.6623676E+002, 1.7416969E-002, 2.9622857E-002
 2.6510000E+002, 4.6661923E+002, 1.7836304E-002, 2.9525965E-002
 2.7010000E+002, 4.6636359E+002, 1.8110376E-002, 2.9427014E-002
 2.7510000E+002, 4.6603549E+002, 1.8417927E-002, 2.9326864E-002
 2.8010000E+002, 4.6645001E+002, 1.8850597E-002, 2.9224413E-002
 2.8510000E+002, 4.6681689E+002, 1.9209299E-002, 2.9119805E-002
 2.9010000E+002, 4.6640698E+002, 1.9378889E-002, 2.9013615E-002
 2.9510000E+002, 4.6629111E+002, 1.9654382E-002, 2.8906554E-002
 3.0010000E+002, 4.6668112E+002, 1.9973306E-002, 2.8797625E-002
 3.0500000E+002, 4.6702307E+002, 2.0211965E-002, 2.8688291E-002
 3.1000000E+002, 4.6625470E+002, 2.0217912E-002, 2.8578315E-002
 3.1500000E+002, 4.6654852E+002, 2.0477355E-002, 2.8466530E-002
 3.2000000E+002, 4.6691620E+002, 2.0673214E-002, 2.8353434E-002
 3.2500000E+002, 4.6680728E+002, 2.0724993E-002, 2.8239533E-002
 3.3000000E+002, 4.6644397E+002, 2.0784976E-002, 2.8125694E-002
 3.3500000E+002, 4.6683685E+002, 2.0972695E-002, 2.8010920E-002
 3.4000000E+002, 4.6719113E+002, 2.1082681E-002, 2.7895352E-002
 3.4500000E+002, 4.6648956E+002, 2.1001447E-002, 2.7779745E-002
 3.5000000E+002, 4.6680301E+002, 2.1173775E-002, 2.7663892E-002
 3.5500000E+002, 4.6719315E+002, 2.1274040E-002, 2.7547235E-002
 3.6000000E+002, 4.6702252E+002, 2.1238381E-002, 2.7430315E-002
 3.6500000E+002, 4.6684772E+002, 2.1291360E-002, 2.7313646E-002
 3.7000000E+002, 4.6729272E+002, 2.1386027E-002, 2.7196340E-002
 3.7500000E+002, 4.6762967E+002, 2.1395808E-002, 2.7078765E-002
 3.8000000E+002, 4.6707938E+002, 2.1313282E-002, 2.6961528E-002
 3.8500000E+002, 4.6761115E+002, 2.1386383E-002, 2.6844151E-002
 3.9000000E+002, 4.6815121E+002, 2.1363137E-002, 2.6726687E-002
 3.9500000E+002, 4.6806363E+002, 2.1248516E-002, 2.6609574E-002
 4.0000000E+002, 4.6846506E+002, 2.1200091E-002, 2.6493009E-002
 4.0500000E+002, 4.6930405E+002, 2.1110797E-002, 2.6376748E-002
 4.1000000E+002, 4.7012332E+002, 2.0946736E-002, 2.6261128E-002
 4.1500000E+002, 4.7088940E+002, 2.0686628E-002, 2.6146844E-002
 4.2000000E+002, 4.7258868E+002, 2.0506779E-002, 2.6033644E-002
 4.2500000E+002, 4.7475934E+002, 2.0253018E-002, 2.5921650E-002
 4.3000000E+002, 4.7854620E+002, 1.9644527E-002, 2.5811872E-002
 4.3500000E+002, 4.8324814E+002, 1.9295910E-002, 2.5705080E-002
 4.4000000E+002, 4.8970892E+002, 1.8810501E-002, 2.5600294E-002
 4.4500000E+002, 5.0335022E+002, 1.7724788E-002, 2.5499413E-002
 4.5000000E+002, 5.6959998E+002, 3.2714899E-003, 2.5436051E-002
 4.5500000E+002, 5.3326910E+002, 0.0000000E+000, 2.5434300E-002
 4.6000000E+002, 5.2272339E+002, 0.0000000E+000, 2.5434300E-002
 4.6500000E+002, 5.1899585E+002, 0.0000000E+000, 2.5434300E-002
 4.7000000E+002, 5.1754724E+002, 0.0000000E+000, 2.5434300E-002
 4.7500000E+002, 5.1713306E+002, 0.0000000E+000, 2.5434300E-002
 4.8000000E+002, 5.1724646E+002, 0.0000000E+000, 2.5434300E-002
 4.8500000E+002, 5.1764032E+002, 0.0000000E+000, 2.5434300E-002
 4.9000000E+002, 5.1818359E+002, 0.0000000E+000, 2.5434300E-002
 4.9500000E+002, 5.1880280E+002, 0.0000000E+000, 2.5434300E-002
 5.0000000E+002, 5.1945544E+002, 0.0000000E+000, 2.5434300E-002
 5.0500000E+002, 5.2011615E+002, 0.0000000E+000, 2.5434300E-002
 5.1000000E+002, 5.2076984E+002, 0.0000000E+000, 2.5434300E-002
 5.1500000E+002, 5.2140753E+002, 0.0000000E+000, 2.5434300E-002
 5.2000000E+002, 5.2202393E+002, 0.0000000E+000, 2.5434300E-002
 5.2500000E+002, 5.2261627E+002, 0.0000000E+000, 2.5434300E-002
 5.3000000E+002, 5.2318323E+002, 0.0000000E+000, 2.5434300E-002
 5.3500000E+002, 5.2372430E+002, 0.0000000E+000, 2.5434300E-002
 5.4000000E+002, 5.2423981E+002, 0.0000000E+000, 2.5434300E-002
 5.4500000E+002, 5.2473016E+002, 0.0000000E+000, 2.5434300E-002
 5.5000000E+002, 5.2519623E+002, 0.0000000E+000, 2.5434300E-002
 5.5500000E+002, 5.2563879E+002, 0.0000000E+000, 2.5434300E-002
 5.6000000E+002, 5.2605884E+002, 0.0000000E+000, 2.5434300E-002
 5.6500000E+002, 5.2645734E+002, 0.0000000E+000, 2.5434300E-002
 5.7000000E+002, 5.2683527E+002, 0.0000000E+000, 2.5434300E-002
 5.7500000E+002, 5.2719348E+002, 0.0000000E+000, 2.5434300E-002
 5.8000000E+002, 5.2753302E+002, 0.0000000E+000, 2.5434300E-002
 5.8500000E+002, 5.2785474E+002, 0.0000000E+000, 2.5434300E-002
 5.9000000E+002, 5.2815948E+002, 0.0000000E+000, 2.5434300E-002
 5.9500000E+002, 5.2844812E+002, 0.0000000E+000, 2.5434300E-002
 6.0000000E+002, 5.2872137E+002, 0.0000000E+000, 2.5434300E-002
 6.0500000E+002, 5.2898016E+002, 0.0000000E+000, 2.5434300E-002
 6.1000000E+002, 5.2922510E+002, 0.0000000E+000, 2.5434300E-002
 6.1500000E+002, 5.2945691E+002, 0.0000000E+000, 2.5434300E-002
 6.2000000E+002, 5.2967633E+002, 0.0000000E+000, 2.5434300E-002
 6.2500000E+002, 5.2988391E+002, 0.0000000E+000, 2.5434300E-002
 6.3000000E+002, 5.3008026E+002, 0.0000000E+000, 2.5434300E-002
 6.3500000E+002, 5.3026605E+002, 0.0000000E+000, 2.5434300E-002
 6.4000000E+002, 5.3044177E+002, 0.0000000E+000, 2.5434300E-002
 6.4500000E+002, 5.3060797E+002, 0.0000000E+000, 2.5434300E-002
 6.5000000E+002, 5.3076514E+002, 0.0000000E+000, 2.5434300E-002
 6.5500000E+002, 5.3091376E+002, 0.0000000E+000, 2.5434300E-002
 6.6000000E+002, 5.3105426E+002, 0.0000000E+000, 2.5434300E-002
 6.6500000E+002, 5.3118707E+002, 0.0000000E+000, 2.5434300E-002
 6.7000000E+002, 5.3131268E+002, 0.0000000E+000, 2.5434300E-002
 6.7500000E+002, 5.3143140E+002, 0.0000000E+000, 2.5434300E-002
 6.8000000E+002, 5.3154358E+002, 0.0000000E+000, 2.5434300E-002
 6.8500000E+002, 5.3164960E+002, 0.0000000E+000, 2.5434300E-002
 6.9000000E+002, 5.3174982E+002, 0.0000000E+000, 2.5434300E-002
 6.9500000E+002, 5.3184454E+002, 0.0000000E+000, 2.5434300E-002
 7.0000000E+002, 5.3193402E+002, 0.0000000E+000, 2.5434300E-002
