s,kW,C,kg/s,m,kW/m2
Time,"HRR","temp","MLR","thick","flux"
 0.000E+000, 0.000E+000, 2.000E+001, 0.000E+000, 1.900E-002,-2.233E-009
 2.012E+000, 0.000E+000, 3.504E+001, 5.631E-022, 1.900E-002, 3.424E+001
 4.003E+000, 0.000E+000, 5.794E+001, 6.300E-020, 1.900E-002, 3.507E+001
 6.015E+000, 0.000E+000, 7.443E+001, 1.839E-018, 1.900E-002, 3.514E+001
 8.005E+000, 0.000E+000, 8.795E+001, 2.511E-017, 1.900E-002, 3.518E+001
 1.002E+001, 0.000E+000, 9.962E+001, 2.155E-016, 1.900E-002, 3.521E+001
 1.201E+001, 0.000E+000, 1.100E+002, 1.320E-015, 1.900E-002, 3.523E+001
 1.401E+001, 0.000E+000, 1.194E+002, 6.361E-015, 1.900E-002, 3.526E+001
 1.601E+001, 0.000E+000, 1.281E+002, 2.547E-014, 1.900E-002, 3.529E+001
 1.801E+001, 0.000E+000, 1.362E+002, 8.802E-014, 1.900E-002, 3.531E+001
 2.000E+001, 0.000E+000, 1.437E+002, 2.697E-013, 1.900E-002, 3.535E+001
 2.201E+001, 3.366E-011, 1.509E+002, 7.518E-013, 1.900E-002, 3.538E+001
 2.401E+001, 1.041E-008, 1.577E+002, 1.936E-012, 1.900E-002, 3.540E+001
 2.600E+001, 5.298E-008, 1.643E+002, 4.638E-012, 1.900E-002, 3.544E+001
 2.800E+001, 1.637E-007, 1.707E+002, 1.050E-011, 1.900E-002, 3.551E+001
 3.001E+001, 3.962E-007, 1.768E+002, 2.269E-011, 1.900E-002, 3.551E+001
 3.201E+001, 8.475E-007, 1.826E+002, 4.695E-011, 1.900E-002, 3.549E+001
 3.401E+001, 1.728E-006, 1.882E+002, 9.337E-011, 1.900E-002, 3.550E+001
 3.600E+001, 3.369E-006, 1.939E+002, 1.793E-010, 1.900E-002, 3.564E+001
 3.801E+001, 6.352E-006, 1.993E+002, 3.349E-010, 1.900E-002, 3.559E+001
 4.000E+001, 1.162E-005, 2.046E+002, 6.093E-010, 1.900E-002, 3.563E+001
 4.201E+001, 2.069E-005, 2.099E+002, 1.082E-009, 1.900E-002, 3.566E+001
 4.400E+001, 3.608E-005, 2.149E+002, 1.880E-009, 1.900E-002, 3.566E+001
 4.600E+001, 6.148E-005, 2.200E+002, 3.201E-009, 1.900E-002, 3.571E+001
 4.800E+001, 1.030E-004, 2.250E+002, 5.356E-009, 1.900E-002, 3.573E+001
 5.001E+001, 1.696E-004, 2.300E+002, 8.815E-009, 1.900E-002, 3.577E+001
 5.200E+001, 2.747E-004, 2.347E+002, 1.426E-008, 1.900E-002, 3.577E+001
 5.401E+001, 4.384E-004, 2.395E+002, 2.275E-008, 1.900E-002, 3.580E+001
 5.601E+001, 6.899E-004, 2.444E+002, 3.579E-008, 1.900E-002, 3.590E+001
 5.801E+001, 1.072E-003, 2.492E+002, 5.558E-008, 1.900E-002, 3.592E+001
 6.001E+001, 1.643E-003, 2.539E+002, 8.520E-008, 1.900E-002, 3.596E+001
 6.201E+001, 2.489E-003, 2.584E+002, 1.290E-007, 1.900E-002, 3.592E+001
 6.400E+001, 3.727E-003, 2.629E+002, 1.930E-007, 1.900E-002, 3.597E+001
 6.601E+001, 5.519E-003, 2.674E+002, 2.860E-007, 1.900E-002, 3.602E+001
 6.801E+001, 8.105E-003, 2.720E+002, 4.196E-007, 1.900E-002, 3.609E+001
 7.000E+001, 1.176E-002, 2.762E+002, 6.085E-007, 1.900E-002, 3.600E+001
 7.201E+001, 1.689E-002, 2.805E+002, 8.746E-007, 1.900E-002, 3.605E+001
 7.401E+001, 2.409E-002, 2.845E+002, 1.246E-006, 1.900E-002, 3.602E+001
 7.601E+001, 3.403E-002, 2.887E+002, 1.760E-006, 1.900E-002, 3.604E+001
 7.800E+001, 4.768E-002, 2.925E+002, 2.465E-006, 1.900E-002, 3.593E+001
 8.001E+001, 6.619E-002, 2.961E+002, 3.424E-006, 1.900E-002, 3.585E+001
 8.201E+001, 9.129E-002, 3.001E+002, 4.719E-006, 1.900E-002, 3.599E+001
 8.400E+001, 1.250E-001, 3.045E+002, 6.460E-006, 1.900E-002, 3.621E+001
 8.601E+001, 1.699E-001, 3.087E+002, 8.780E-006, 1.900E-002, 3.619E+001
 8.800E+001, 2.292E-001, 3.128E+002, 1.185E-005, 1.900E-002, 3.631E+001
 9.001E+001, 3.075E-001, 3.165E+002, 1.589E-005, 1.900E-002, 3.620E+001
 9.201E+001, 4.104E-001, 3.202E+002, 2.119E-005, 1.900E-002, 3.623E+001
 9.400E+001, 5.427E-001, 3.237E+002, 2.803E-005, 1.900E-002, 3.620E+001
 9.601E+001, 7.140E-001, 3.276E+002, 3.688E-005, 1.900E-002, 3.634E+001
 9.800E+001, 9.356E-001, 3.312E+002, 4.831E-005, 1.900E-002, 3.636E+001
 1.000E+002, 1.220E+000, 3.352E+002, 6.298E-005, 1.900E-002, 3.659E+001
 1.020E+002, 1.586E+000, 3.396E+002, 8.184E-005, 1.900E-002, 3.704E+001
 1.040E+002, 2.053E+000, 3.437E+002, 1.060E-004, 1.900E-002, 3.715E+001
 1.060E+002, 2.646E+000, 3.481E+002, 1.366E-004, 1.900E-002, 3.756E+001
 1.080E+002, 3.406E+000, 3.524E+002, 1.758E-004, 1.900E-002, 3.773E+001
 1.100E+002, 4.375E+000, 3.566E+002, 2.257E-004, 1.900E-002, 3.812E+001
 1.120E+002, 5.612E+000, 3.610E+002, 2.895E-004, 1.900E-002, 3.847E+001
 1.140E+002, 7.201E+000, 3.659E+002, 3.717E-004, 1.900E-002, 3.953E+001
 1.160E+002, 9.282E+000, 3.713E+002, 4.788E-004, 1.900E-002, 4.110E+001
 1.180E+002, 1.202E+001, 3.769E+002, 6.199E-004, 1.900E-002, 4.194E+001
 1.200E+002, 1.569E+001, 3.858E+002, 8.099E-004, 1.900E-002, 4.851E+001
 1.220E+002, 2.097E+001, 3.957E+002, 1.085E-003, 1.900E-002, 5.306E+001
 1.240E+002, 2.943E+001, 4.077E+002, 1.528E-003, 1.900E-002, 5.888E+001
 1.260E+002, 4.298E+001, 4.204E+002, 2.234E-003, 1.900E-002, 6.476E+001
 1.280E+002, 6.409E+001, 4.313E+002, 3.358E-003, 1.900E-002, 6.824E+001
 1.300E+002, 9.577E+001, 4.401E+002, 5.010E-003, 1.900E-002, 7.010E+001
 1.320E+002, 1.375E+002, 4.460E+002, 7.208E-003, 1.900E-002, 6.946E+001
 1.340E+002, 1.911E+002, 4.507E+002, 1.000E-002, 1.900E-002, 6.888E+001
 1.360E+002, 2.619E+002, 4.586E+002, 1.364E-002, 1.900E-002, 7.079E+001
 1.380E+002, 3.458E+002, 4.651E+002, 1.807E-002, 1.900E-002, 6.967E+001
 1.400E+002, 4.359E+002, 4.786E+002, 2.311E-002, 1.900E-002, 7.175E+001
 1.420E+002, 5.276E+002, 4.963E+002, 2.749E-002, 1.900E-002, 7.143E+001
 1.440E+002, 6.079E+002, 5.260E+002, 3.153E-002, 1.900E-002, 7.218E+001
 1.460E+002, 6.751E+002, 5.430E+002, 3.508E-002, 1.900E-002, 7.360E+001
 1.480E+002, 7.158E+002, 5.457E+002, 3.684E-002, 1.900E-002, 7.089E+001
 1.500E+002, 7.155E+002, 5.543E+002, 3.651E-002, 1.900E-002, 7.198E+001
 1.520E+002, 7.035E+002, 5.638E+002, 3.662E-002, 1.900E-002, 7.085E+001
 1.540E+002, 7.257E+002, 5.696E+002, 3.701E-002, 1.900E-002, 7.029E+001
 1.560E+002, 7.158E+002, 5.883E+002, 3.689E-002, 1.900E-002, 7.248E+001
 1.580E+002, 7.029E+002, 6.024E+002, 3.607E-002, 1.901E-002, 7.207E+001
 1.600E+002, 6.708E+002, 6.016E+002, 3.431E-002, 1.901E-002, 7.114E+001
 1.620E+002, 6.565E+002, 6.040E+002, 3.345E-002, 1.901E-002, 7.077E+001
 1.640E+002, 6.403E+002, 6.183E+002, 3.306E-002, 1.901E-002, 7.387E+001
 1.660E+002, 6.321E+002, 6.121E+002, 3.246E-002, 1.901E-002, 6.985E+001
 1.680E+002, 6.324E+002, 6.138E+002, 3.245E-002, 1.901E-002, 6.958E+001
 1.700E+002, 6.425E+002, 6.253E+002, 3.255E-002, 1.901E-002, 7.272E+001
 1.720E+002, 6.176E+002, 6.314E+002, 3.207E-002, 1.901E-002, 7.110E+001
 1.740E+002, 6.225E+002, 6.368E+002, 3.133E-002, 1.901E-002, 7.218E+001
 1.760E+002, 6.023E+002, 6.436E+002, 3.061E-002, 1.901E-002, 7.362E+001
 1.780E+002, 5.813E+002, 6.407E+002, 3.044E-002, 1.901E-002, 6.847E+001
 1.800E+002, 5.955E+002, 6.415E+002, 3.028E-002, 1.901E-002, 7.155E+001
 1.820E+002, 5.924E+002, 6.484E+002, 3.072E-002, 1.901E-002, 7.221E+001
 1.840E+002, 6.024E+002, 6.520E+002, 3.094E-002, 1.901E-002, 7.258E+001
 1.860E+002, 5.988E+002, 6.492E+002, 3.063E-002, 1.901E-002, 6.939E+001
 1.880E+002, 5.929E+002, 6.539E+002, 3.017E-002, 1.901E-002, 7.163E+001
 1.900E+002, 5.805E+002, 6.613E+002, 2.961E-002, 1.901E-002, 7.367E+001
 1.920E+002, 5.619E+002, 6.731E+002, 2.899E-002, 1.901E-002, 7.500E+001
 1.940E+002, 5.579E+002, 6.675E+002, 2.838E-002, 1.901E-002, 7.184E+001
 1.960E+002, 5.503E+002, 6.716E+002, 2.799E-002, 1.901E-002, 7.390E+001
 1.980E+002, 5.377E+002, 6.755E+002, 2.779E-002, 1.901E-002, 7.351E+001
 2.000E+002, 5.370E+002, 6.711E+002, 2.758E-002, 1.901E-002, 7.121E+001
 2.020E+002, 5.304E+002, 6.677E+002, 2.721E-002, 1.901E-002, 7.009E+001
 2.040E+002, 5.297E+002, 6.688E+002, 2.687E-002, 1.901E-002, 7.089E+001
 2.060E+002, 5.139E+002, 6.764E+002, 2.640E-002, 1.901E-002, 7.304E+001
 2.080E+002, 5.033E+002, 6.722E+002, 2.583E-002, 1.901E-002, 6.942E+001
 2.100E+002, 4.884E+002, 6.790E+002, 2.521E-002, 1.901E-002, 7.260E+001
 2.120E+002, 4.874E+002, 6.846E+002, 2.479E-002, 1.901E-002, 7.322E+001
 2.140E+002, 4.768E+002, 6.817E+002, 2.435E-002, 1.902E-002, 7.152E+001
 2.160E+002, 4.712E+002, 6.906E+002, 2.397E-002, 1.902E-002, 7.517E+001
 2.180E+002, 4.590E+002, 6.884E+002, 2.366E-002, 1.902E-002, 7.248E+001
 2.200E+002, 4.603E+002, 6.908E+002, 2.339E-002, 1.902E-002, 7.331E+001
 2.220E+002, 4.460E+002, 6.871E+002, 2.308E-002, 1.902E-002, 7.079E+001
 2.240E+002, 4.436E+002, 6.889E+002, 2.262E-002, 1.902E-002, 7.237E+001
 2.260E+002, 4.314E+002, 6.895E+002, 2.209E-002, 1.902E-002, 7.164E+001
 2.280E+002, 4.221E+002, 6.957E+002, 2.154E-002, 1.902E-002, 7.330E+001
 2.300E+002, 4.115E+002, 6.887E+002, 2.103E-002, 1.902E-002, 7.085E+001
 2.320E+002, 3.997E+002, 6.973E+002, 2.064E-002, 1.902E-002, 7.376E+001
 2.340E+002, 3.996E+002, 6.933E+002, 2.034E-002, 1.902E-002, 7.089E+001
 2.360E+002, 3.920E+002, 7.022E+002, 2.002E-002, 1.902E-002, 7.492E+001
 2.380E+002, 3.834E+002, 7.009E+002, 1.975E-002, 1.902E-002, 7.256E+001
 2.400E+002, 3.754E+002, 6.996E+002, 1.940E-002, 1.902E-002, 7.160E+001
 2.420E+002, 3.762E+002, 7.024E+002, 1.900E-002, 1.902E-002, 7.408E+001
 2.440E+002, 3.602E+002, 7.001E+002, 1.864E-002, 1.902E-002, 7.123E+001
 2.460E+002, 3.591E+002, 7.008E+002, 1.827E-002, 1.902E-002, 7.205E+001
 2.480E+002, 3.489E+002, 6.990E+002, 1.787E-002, 1.902E-002, 7.214E+001
 2.500E+002, 3.419E+002, 7.085E+002, 1.748E-002, 1.902E-002, 7.440E+001
 2.520E+002, 3.363E+002, 7.028E+002, 1.715E-002, 1.902E-002, 7.101E+001
 2.540E+002, 3.283E+002, 7.102E+002, 1.687E-002, 1.902E-002, 7.485E+001
 2.560E+002, 3.246E+002, 7.081E+002, 1.662E-002, 1.902E-002, 7.218E+001
 2.580E+002, 3.200E+002, 7.144E+002, 1.635E-002, 1.902E-002, 7.593E+001
 2.600E+002, 3.131E+002, 7.136E+002, 1.612E-002, 1.902E-002, 7.340E+001
 2.620E+002, 3.114E+002, 7.130E+002, 1.582E-002, 1.902E-002, 7.384E+001
 2.640E+002, 3.009E+002, 7.029E+002, 1.547E-002, 1.902E-002, 6.804E+001
 2.660E+002, 2.956E+002, 7.073E+002, 1.511E-002, 1.902E-002, 7.188E+001
 2.680E+002, 2.898E+002, 7.122E+002, 1.475E-002, 1.902E-002, 7.459E+001
 2.700E+002, 2.804E+002, 7.150E+002, 1.447E-002, 1.902E-002, 7.293E+001
 2.720E+002, 2.784E+002, 7.100E+002, 1.418E-002, 1.902E-002, 7.191E+001
 2.740E+002, 2.713E+002, 7.188E+002, 1.389E-002, 1.903E-002, 7.516E+001
 2.760E+002, 2.641E+002, 7.183E+002, 1.363E-002, 1.903E-002, 7.334E+001
 2.780E+002, 2.609E+002, 7.191E+002, 1.333E-002, 1.903E-002, 7.474E+001
 2.800E+002, 2.550E+002, 7.166E+002, 1.301E-002, 1.903E-002, 7.165E+001
 2.820E+002, 2.470E+002, 7.195E+002, 1.266E-002, 1.903E-002, 7.384E+001
 2.840E+002, 2.410E+002, 7.196E+002, 1.229E-002, 1.903E-002, 7.294E+001
 2.860E+002, 2.326E+002, 7.176E+002, 1.193E-002, 1.903E-002, 7.229E+001
 2.880E+002, 2.242E+002, 7.136E+002, 1.159E-002, 1.903E-002, 7.022E+001
 2.900E+002, 2.222E+002, 7.226E+002, 1.124E-002, 1.903E-002, 7.477E+001
 2.920E+002, 2.132E+002, 7.184E+002, 1.088E-002, 1.903E-002, 7.106E+001
 2.940E+002, 2.044E+002, 7.236E+002, 1.050E-002, 1.903E-002, 7.413E+001
 2.960E+002, 1.976E+002, 7.245E+002, 1.008E-002, 1.903E-002, 7.383E+001
 2.980E+002, 1.873E+002, 7.264E+002, 9.617E-003, 1.903E-002, 7.364E+001
 3.000E+002, 1.793E+002, 7.236E+002, 9.112E-003, 1.903E-002, 7.193E+001
