s,C,kg/m2/s,m
Time,"temp","MLR","thick"
 0.0000000E+000, 2.0000000E+001, 0.0000000E+000, 1.8999999E-002
 5.0100000E+000, 5.9615097E+001, 5.8499091E-030, 1.8999999E-002
 1.0010000E+001, 1.1418028E+002, 3.0828767E-024, 1.8999999E-002
 1.5010000E+001, 1.5376396E+002, 1.6058558E-020, 1.8999999E-002
 2.0000000E+001, 1.8613895E+002, 8.1533646E-018, 1.8999999E-002
 2.5000000E+001, 2.1388199E+002, 1.0270657E-015, 1.8999999E-002
 3.0000000E+001, 2.3827980E+002, 5.0566976E-014, 1.8999999E-002
 3.5000000E+001, 2.6005173E+002, 1.2690925E-012, 1.8999999E-002
 4.0000000E+001, 2.7969135E+002, 1.9230778E-011, 1.8999999E-002
 4.5010000E+001, 2.9756448E+002, 1.9777875E-010, 1.8999999E-002
 5.0010000E+001, 3.1391217E+002, 1.4892596E-009, 1.8999999E-002
 5.5010000E+001, 3.2892145E+002, 8.7144958E-009, 1.8999999E-002
 6.0010000E+001, 3.4277087E+002, 4.1487809E-008, 1.8999999E-002
 6.5010000E+001, 3.5559244E+002, 1.6628979E-007, 1.8999999E-002
 7.0010000E+001, 3.6749634E+002, 5.7642615E-007, 1.8999998E-002
 7.5000000E+001, 3.7856491E+002, 1.7632447E-006, 1.8999992E-002
 8.0000000E+001, 3.8888849E+002, 4.8508095E-006, 1.8999973E-002
 8.5000000E+001, 3.9854227E+002, 1.2173510E-005, 1.8999927E-002
 9.0000000E+001, 4.0756793E+002, 2.8153274E-005, 1.8999815E-002
 9.5000000E+001, 4.1600323E+002, 6.0512837E-005, 1.8999567E-002
 1.0000000E+002, 4.2386807E+002, 1.2161692E-004, 1.8999055E-002
 1.0500000E+002, 4.3116095E+002, 2.2935713E-004, 1.8998062E-002
 1.1000000E+002, 4.3785663E+002, 4.0635481E-004, 1.8996254E-002
 1.1500000E+002, 4.4390942E+002, 6.7582045E-004, 1.8993154E-002
 1.2000000E+002, 4.4926566E+002, 1.0533928E-003, 1.8988179E-002
 1.2500000E+002, 4.5388559E+002, 1.5377016E-003, 1.8980693E-002
 1.3000000E+002, 4.5776746E+002, 2.1062810E-003, 1.8970130E-002
 1.3500000E+002, 4.6095880E+002, 2.7216831E-003, 1.8956104E-002
 1.4000000E+002, 4.6354767E+002, 3.3444806E-003, 1.8938461E-002
 1.4500000E+002, 4.6564078E+002, 3.9442675E-003, 1.8917253E-002
 1.5000000E+002, 4.6734259E+002, 4.5036627E-003, 1.8892670E-002
 1.5500000E+002, 4.6874213E+002, 5.0161257E-003, 1.8864971E-002
 1.6001000E+002, 4.6991052E+002, 5.4824953E-003, 1.8834395E-002
 1.6501000E+002, 4.7089883E+002, 5.9058969E-003, 1.8801235E-002
 1.7001000E+002, 4.7174585E+002, 6.2912442E-003, 1.8765759E-002
 1.7501000E+002, 4.7248090E+002, 6.6439463E-003, 1.8728139E-002
 1.8001000E+002, 4.7205023E+002, 6.8656611E-003, 1.8688714E-002
 1.8501000E+002, 4.7191522E+002, 7.0945169E-003, 1.8648287E-002
 1.9001000E+002, 4.7269238E+002, 7.4369088E-003, 1.8606035E-002
 1.9501000E+002, 4.7338828E+002, 7.7518681E-003, 1.8561864E-002
 2.0001000E+002, 4.7400333E+002, 8.0386093E-003, 1.8515948E-002
 2.0501000E+002, 4.7455115E+002, 8.3031906E-003, 1.8468432E-002
 2.1001000E+002, 4.7504196E+002, 8.5502276E-003, 1.8419430E-002
 2.1501000E+002, 4.7419611E+002, 8.6276028E-003, 1.8369358E-002
 2.2001000E+002, 4.7430869E+002, 8.8333068E-003, 1.8318765E-002
 2.2501000E+002, 4.7493622E+002, 9.1213854E-003, 1.8266555E-002
 2.3001000E+002, 4.7549213E+002, 9.3815224E-003, 1.8212754E-002
 2.3501000E+002, 4.7598398E+002, 9.6193030E-003, 1.8157508E-002
 2.4001000E+002, 4.7642297E+002, 9.8416768E-003, 1.8100929E-002
 2.4501000E+002, 4.7521072E+002, 9.8352199E-003, 1.8043708E-002
 2.5001000E+002, 4.7575351E+002, 1.0103575E-002, 1.7985802E-002
 2.5501000E+002, 4.7632675E+002, 1.0377450E-002, 1.7926246E-002
 2.6001000E+002, 4.7682794E+002, 1.0621915E-002, 1.7865188E-002
 2.6501000E+002, 4.7726978E+002, 1.0846958E-002, 1.7802769E-002
 2.7001000E+002, 4.7633496E+002, 1.0862757E-002, 1.7739557E-002
 2.7501000E+002, 4.7662610E+002, 1.1099131E-002, 1.7675856E-002
 2.8001000E+002, 4.7719455E+002, 1.1382851E-002, 1.7610483E-002
 2.8501000E+002, 4.7768829E+002, 1.1633858E-002, 1.7543560E-002
 2.9001000E+002, 4.7791492E+002, 1.1833449E-002, 1.7475253E-002
 2.9501000E+002, 4.7699274E+002, 1.1847557E-002, 1.7406525E-002
 3.0001000E+002, 4.7759085E+002, 1.2158650E-002, 1.7336743E-002
 3.0501000E+002, 4.7812720E+002, 1.2440582E-002, 1.7265212E-002
 3.1001000E+002, 4.7859024E+002, 1.2691520E-002, 1.7192142E-002
 3.1501000E+002, 4.7781131E+002, 1.2726380E-002, 1.7118128E-002
 3.2001000E+002, 4.7806299E+002, 1.2983589E-002, 1.7043557E-002
 3.2501000E+002, 4.7862167E+002, 1.3291663E-002, 1.6967151E-002
 3.3001000E+002, 4.7910117E+002, 1.3561780E-002, 1.6889073E-002
 3.3501000E+002, 4.7843420E+002, 1.3618994E-002, 1.6809912E-002
 3.4001000E+002, 4.7862747E+002, 1.3881516E-002, 1.6730160E-002
 3.4501000E+002, 4.7918753E+002, 1.4206989E-002, 1.6648481E-002
 3.5001000E+002, 4.7966580E+002, 1.4491472E-002, 1.6565038E-002
 3.5501000E+002, 4.7875571E+002, 1.4515521E-002, 1.6480705E-002
 3.6001000E+002, 4.7928119E+002, 1.4867010E-002, 1.6395342E-002
 3.6501000E+002, 4.7981973E+002, 1.5197379E-002, 1.6307918E-002
 3.7001000E+002, 4.7974405E+002, 1.5384590E-002, 1.6218813E-002
 3.7501000E+002, 4.7941406E+002, 1.5559329E-002, 1.6129112E-002
 3.8001000E+002, 4.8000153E+002, 1.5940301E-002, 1.6037513E-002
 3.8501000E+002, 4.8048370E+002, 1.6265186E-002, 1.5943862E-002
 3.9001000E+002, 4.7962366E+002, 1.6320201E-002, 1.5849192E-002
 3.9501000E+002, 4.8022983E+002, 1.6736116E-002, 1.5753089E-002
 4.0001000E+002, 4.8075818E+002, 1.7099872E-002, 1.5654700E-002
 4.0501000E+002, 4.8014709E+002, 1.7213721E-002, 1.5554858E-002
 4.1001000E+002, 4.8051746E+002, 1.7603796E-002, 1.5453779E-002
 4.1501000E+002, 4.8106223E+002, 1.8001059E-002, 1.5350245E-002
 4.2001000E+002, 4.8051813E+002, 1.8146036E-002, 1.5245061E-002
 4.2501000E+002, 4.8086838E+002, 1.8559726E-002, 1.5138503E-002
 4.3001000E+002, 4.8141211E+002, 1.8981818E-002, 1.5029336E-002
 4.3501000E+002, 4.8075204E+002, 1.9129967E-002, 1.4918543E-002
 4.4001000E+002, 4.8127591E+002, 1.9614292E-002, 1.4805953E-002
 4.4501000E+002, 4.8155792E+002, 1.9996846E-002, 1.4690637E-002
 4.5001000E+002, 4.8113498E+002, 2.0252911E-002, 1.4573840E-002
 4.5501000E+002, 4.8173120E+002, 2.0777637E-002, 1.4454521E-002
 4.6001000E+002, 4.8152823E+002, 2.1070333E-002, 1.4332675E-002
 4.6501000E+002, 4.8166248E+002, 2.1525070E-002, 1.4209082E-002
 4.7001000E+002, 4.8206381E+002, 2.2004316E-002, 1.4082401E-002
 4.7501000E+002, 4.8161731E+002, 2.2301912E-002, 1.3953777E-002
 4.8001000E+002, 4.8221262E+002, 2.2883592E-002, 1.3822366E-002
 4.8501000E+002, 4.8187762E+002, 2.3188815E-002, 1.3688324E-002
 4.9001000E+002, 4.8222787E+002, 2.3733893E-002, 1.3552044E-002
 4.9501000E+002, 4.8220477E+002, 2.4107682E-002, 1.3412741E-002
 5.0001000E+002, 4.8226727E+002, 2.4561999E-002, 1.3271487E-002
 5.0501000E+002, 4.8245255E+002, 2.4965599E-002, 1.3127267E-002
 5.1001000E+002, 4.8233099E+002, 2.5320217E-002, 1.2981318E-002
 5.1501000E+002, 4.8264148E+002, 2.5712470E-002, 1.2832737E-002
 5.2001000E+002, 4.8241895E+002, 2.5967559E-002, 1.2682705E-002
 5.2501000E+002, 4.8279004E+002, 2.6314080E-002, 1.2530508E-002
 5.3001000E+002, 4.8253632E+002, 2.6486341E-002, 1.2377200E-002
 5.3501000E+002, 4.8293005E+002, 2.6770234E-002, 1.2222175E-002
 5.4001000E+002, 4.8269699E+002, 2.6882403E-002, 1.2066387E-002
 5.4501000E+002, 4.8310037E+002, 2.7099134E-002, 1.1909248E-002
 5.5001000E+002, 4.8293890E+002, 2.7165299E-002, 1.1751682E-002
 5.5501000E+002, 4.8336502E+002, 2.7296314E-002, 1.1593141E-002
 5.6001000E+002, 4.8334232E+002, 2.7303403E-002, 1.1434587E-002
 5.6501000E+002, 4.8385834E+002, 2.7307739E-002, 1.1275613E-002
 5.7001000E+002, 4.8409442E+002, 2.7185624E-002, 1.1117322E-002
 5.7501000E+002, 4.8488489E+002, 2.6973210E-002, 1.0959656E-002
 5.8001000E+002, 4.8565018E+002, 2.6551777E-002, 1.0804120E-002
 5.8501000E+002, 4.8720383E+002, 2.5939556E-002, 1.0651213E-002
 5.9001000E+002, 4.8915155E+002, 2.4878945E-002, 1.0503522E-002
 5.9501000E+002, 4.9258920E+002, 2.3550941E-002, 1.0362300E-002
 6.0001000E+002, 4.9756268E+002, 2.1097451E-002, 1.0232427E-002
 6.0501000E+002, 5.0563196E+002, 1.8274711E-002, 1.0117226E-002
 6.1001000E+002, 5.3960547E+002, 1.1185695E-002, 1.0025457E-002
 6.1501000E+002, 6.3487402E+002, 0.0000000E+000, 9.9999998E-003
 6.2001000E+002, 6.4509772E+002, 0.0000000E+000, 9.9999998E-003
 6.2501000E+002, 6.4998871E+002, 0.0000000E+000, 9.9999998E-003
 6.3001000E+002, 6.5283929E+002, 0.0000000E+000, 9.9999998E-003
 6.3501000E+002, 6.5447815E+002, 0.0000000E+000, 9.9999998E-003
 6.4001000E+002, 6.5540283E+002, 0.0000000E+000, 9.9999998E-003
 6.4501000E+002, 6.5591852E+002, 0.0000000E+000, 9.9999998E-003
 6.5001000E+002, 6.5620435E+002, 0.0000000E+000, 9.9999998E-003
 6.5501000E+002, 6.5636224E+002, 0.0000000E+000, 9.9999998E-003
 6.6001000E+002, 6.5644922E+002, 0.0000000E+000, 9.9999998E-003
 6.6501000E+002, 6.5649713E+002, 0.0000000E+000, 9.9999998E-003
 6.7001000E+002, 6.5652356E+002, 0.0000000E+000, 9.9999998E-003
 6.7501000E+002, 6.5653809E+002, 0.0000000E+000, 9.9999998E-003
 6.8001000E+002, 6.5654602E+002, 0.0000000E+000, 9.9999998E-003
 6.8501000E+002, 6.5655042E+002, 0.0000000E+000, 9.9999998E-003
 6.9001000E+002, 6.5655280E+002, 0.0000000E+000, 9.9999998E-003
 6.9501000E+002, 6.5655414E+002, 0.0000000E+000, 9.9999998E-003
 7.0001000E+002, 6.5655487E+002, 0.0000000E+000, 9.9999998E-003
 7.0501000E+002, 6.5655530E+002, 0.0000000E+000, 9.9999998E-003
 7.1001000E+002, 6.5655554E+002, 0.0000000E+000, 9.9999998E-003
 7.1501000E+002, 6.5655566E+002, 0.0000000E+000, 9.9999998E-003
 7.2001000E+002, 6.5655566E+002, 0.0000000E+000, 9.9999998E-003
 7.2501000E+002, 6.5655573E+002, 0.0000000E+000, 9.9999998E-003
 7.3001000E+002, 6.5655579E+002, 0.0000000E+000, 9.9999998E-003
 7.3501000E+002, 6.5655579E+002, 0.0000000E+000, 9.9999998E-003
 7.4001000E+002, 6.5655579E+002, 0.0000000E+000, 9.9999998E-003
 7.4501000E+002, 6.5655579E+002, 0.0000000E+000, 9.9999998E-003
 7.5001000E+002, 6.5655573E+002, 0.0000000E+000, 9.9999998E-003
 7.5501000E+002, 6.5655579E+002, 0.0000000E+000, 9.9999998E-003
 7.6001000E+002, 6.5655579E+002, 0.0000000E+000, 9.9999998E-003
 7.6501000E+002, 6.5655579E+002, 0.0000000E+000, 9.9999998E-003
 7.7001000E+002, 6.5655579E+002, 0.0000000E+000, 9.9999998E-003
 7.7501000E+002, 6.5655573E+002, 0.0000000E+000, 9.9999998E-003
 7.8001000E+002, 6.5655579E+002, 0.0000000E+000, 9.9999998E-003
 7.8501000E+002, 6.5655579E+002, 0.0000000E+000, 9.9999998E-003
 7.9001000E+002, 6.5655579E+002, 0.0000000E+000, 9.9999998E-003
 7.9501000E+002, 6.5655579E+002, 0.0000000E+000, 9.9999998E-003
 8.0001000E+002, 6.5655573E+002, 0.0000000E+000, 9.9999998E-003
