s,C,kg/m2/s,m
Time,"temp","MLR","thick"
 0.0000000E+000, 2.0000000E+001, 0.0000000E+000, 1.4000000E-002
 5.0100000E+000, 6.7866173E+001, 3.2058893E-017, 1.4000000E-002
 1.0010000E+001, 1.2748317E+002, 1.0704260E-013, 1.4000000E-002
 1.5010000E+001, 1.6829405E+002, 1.7861613E-011, 1.4000000E-002
 2.0000000E+001, 2.0091916E+002, 7.0319162E-010, 1.4000000E-002
 2.5000000E+001, 2.2851534E+002, 1.1856156E-008, 1.4000000E-002
 3.0000000E+001, 2.5262569E+002, 1.1450241E-007, 1.4000000E-002
 3.5000000E+001, 2.7413220E+002, 7.4929659E-007, 1.3999999E-002
 4.0000000E+001, 2.9364160E+002, 3.6956369E-006, 1.3999991E-002
 4.5010000E+001, 3.1159222E+002, 1.4756183E-005, 1.3999960E-002
 5.0010000E+001, 3.2825638E+002, 4.9879291E-005, 1.3999848E-002
 5.5010000E+001, 3.4380344E+002, 1.4723781E-004, 1.3999498E-002
 6.0010000E+001, 3.5832870E+002, 3.8723456E-004, 1.3998534E-002
 6.5010000E+001, 3.7178479E+002, 9.1473974E-004, 1.3996150E-002
 7.0010000E+001, 3.8398148E+002, 1.9373222E-003, 1.3990857E-002
 7.5000000E+001, 3.9461002E+002, 3.6468301E-003, 1.3980362E-002
 8.0000000E+001, 4.0339029E+002, 6.0670688E-003, 1.3961888E-002
 8.5000000E+001, 4.0933466E+002, 8.8329967E-003, 1.3933395E-002
 9.0000000E+001, 4.1440891E+002, 1.1876262E-002, 1.3893412E-002
 9.5000000E+001, 4.1802966E+002, 1.4827308E-002, 1.3842000E-002
 1.0000000E+002, 4.2011862E+002, 1.7353807E-002, 1.3780057E-002
 1.0500000E+002, 4.2232269E+002, 2.0064112E-002, 1.3708219E-002
 1.1000000E+002, 4.2406122E+002, 2.2612970E-002, 1.3626061E-002
 1.1500000E+002, 4.2577356E+002, 2.5198610E-002, 1.3534037E-002
 1.2000000E+002, 4.2637036E+002, 2.7289104E-002, 1.3433138E-002
 1.2500000E+002, 4.2781177E+002, 2.9986456E-002, 1.3322992E-002
 1.3000000E+002, 4.2866742E+002, 3.2339592E-002, 1.3202901E-002
 1.3500000E+002, 4.2933154E+002, 3.4791086E-002, 1.3074121E-002
 1.4000000E+002, 4.3034076E+002, 3.7483368E-002, 1.2935038E-002
 1.4500000E+002, 4.3063812E+002, 3.9788596E-002, 1.2786407E-002
 1.5000000E+002, 4.3163467E+002, 4.2476989E-002, 1.2628127E-002
 1.5500000E+002, 4.3171362E+002, 4.4505738E-002, 1.2460883E-002
 1.6001000E+002, 4.3260333E+002, 4.6780773E-002, 1.2284857E-002
 1.6501000E+002, 4.3275449E+002, 4.8381042E-002, 1.2101758E-002
 1.7001000E+002, 4.3323843E+002, 4.9765721E-002, 1.1912649E-002
 1.7501000E+002, 4.3383264E+002, 5.0950728E-002, 1.1719064E-002
 1.8001000E+002, 4.3401895E+002, 5.1624618E-002, 1.1521730E-002
 1.8501000E+002, 4.3485815E+002, 5.2292753E-002, 1.1321621E-002
 1.9001000E+002, 4.3563504E+002, 5.2667186E-002, 1.1119893E-002
 1.9501000E+002, 4.3678336E+002, 5.2634314E-002, 1.0917121E-002
 2.0001000E+002, 4.3922702E+002, 5.2260932E-002, 1.0715235E-002
 2.0501000E+002, 4.4225290E+002, 5.0651304E-002, 1.0517122E-002
 2.1001000E+002, 4.4900040E+002, 4.7396243E-002, 1.0327170E-002
 2.1501000E+002, 4.6145639E+002, 4.0875122E-002, 1.0156591E-002
 2.2001000E+002, 5.1757208E+002, 2.0782469E-002, 1.0027147E-002
 2.2501000E+002, 6.2551678E+002, 0.0000000E+000, 9.9999998E-003
 2.3001000E+002, 6.3910724E+002, 0.0000000E+000, 9.9999998E-003
 2.3501000E+002, 6.4626453E+002, 0.0000000E+000, 9.9999998E-003
 2.4001000E+002, 6.5062787E+002, 0.0000000E+000, 9.9999998E-003
 2.4501000E+002, 6.5320807E+002, 0.0000000E+000, 9.9999998E-003
 2.5001000E+002, 6.5468732E+002, 0.0000000E+000, 9.9999998E-003
 2.5501000E+002, 6.5551984E+002, 0.0000000E+000, 9.9999998E-003
 2.6001000E+002, 6.5598352E+002, 0.0000000E+000, 9.9999998E-003
 2.6501000E+002, 6.5624023E+002, 0.0000000E+000, 9.9999998E-003
 2.7001000E+002, 6.5638202E+002, 0.0000000E+000, 9.9999998E-003
 2.7501000E+002, 6.5646014E+002, 0.0000000E+000, 9.9999998E-003
 2.8001000E+002, 6.5650317E+002, 0.0000000E+000, 9.9999998E-003
 2.8501000E+002, 6.5652679E+002, 0.0000000E+000, 9.9999998E-003
 2.9001000E+002, 6.5653986E+002, 0.0000000E+000, 9.9999998E-003
 2.9501000E+002, 6.5654706E+002, 0.0000000E+000, 9.9999998E-003
 3.0001000E+002, 6.5655096E+002, 0.0000000E+000, 9.9999998E-003
 3.0501000E+002, 6.5655310E+002, 0.0000000E+000, 9.9999998E-003
 3.1001000E+002, 6.5655432E+002, 0.0000000E+000, 9.9999998E-003
 3.1501000E+002, 6.5655493E+002, 0.0000000E+000, 9.9999998E-003
 3.2001000E+002, 6.5655530E+002, 0.0000000E+000, 9.9999998E-003
 3.2501000E+002, 6.5655548E+002, 0.0000000E+000, 9.9999998E-003
 3.3001000E+002, 6.5655566E+002, 0.0000000E+000, 9.9999998E-003
 3.3501000E+002, 6.5655573E+002, 0.0000000E+000, 9.9999998E-003
 3.4001000E+002, 6.5655573E+002, 0.0000000E+000, 9.9999998E-003
 3.4501000E+002, 6.5655573E+002, 0.0000000E+000, 9.9999998E-003
 3.5001000E+002, 6.5655579E+002, 0.0000000E+000, 9.9999998E-003
 3.5501000E+002, 6.5655579E+002, 0.0000000E+000, 9.9999998E-003
 3.6001000E+002, 6.5655573E+002, 0.0000000E+000, 9.9999998E-003
 3.6501000E+002, 6.5655573E+002, 0.0000000E+000, 9.9999998E-003
 3.7001000E+002, 6.5655573E+002, 0.0000000E+000, 9.9999998E-003
 3.7501000E+002, 6.5655573E+002, 0.0000000E+000, 9.9999998E-003
 3.8001000E+002, 6.5655573E+002, 0.0000000E+000, 9.9999998E-003
 3.8501000E+002, 6.5655573E+002, 0.0000000E+000, 9.9999998E-003
 3.9001000E+002, 6.5655579E+002, 0.0000000E+000, 9.9999998E-003
 3.9501000E+002, 6.5655579E+002, 0.0000000E+000, 9.9999998E-003
 4.0001000E+002, 6.5655579E+002, 0.0000000E+000, 9.9999998E-003
 4.0501000E+002, 6.5655573E+002, 0.0000000E+000, 9.9999998E-003
 4.1001000E+002, 6.5655573E+002, 0.0000000E+000, 9.9999998E-003
 4.1501000E+002, 6.5655573E+002, 0.0000000E+000, 9.9999998E-003
 4.2001000E+002, 6.5655573E+002, 0.0000000E+000, 9.9999998E-003
 4.2501000E+002, 6.5655573E+002, 0.0000000E+000, 9.9999998E-003
 4.3001000E+002, 6.5655573E+002, 0.0000000E+000, 9.9999998E-003
 4.3501000E+002, 6.5655573E+002, 0.0000000E+000, 9.9999998E-003
 4.4001000E+002, 6.5655573E+002, 0.0000000E+000, 9.9999998E-003
 4.4501000E+002, 6.5655579E+002, 0.0000000E+000, 9.9999998E-003
 4.5001000E+002, 6.5655579E+002, 0.0000000E+000, 9.9999998E-003
 4.5501000E+002, 6.5655579E+002, 0.0000000E+000, 9.9999998E-003
 4.6001000E+002, 6.5655579E+002, 0.0000000E+000, 9.9999998E-003
 4.6501000E+002, 6.5655579E+002, 0.0000000E+000, 9.9999998E-003
 4.7001000E+002, 6.5655579E+002, 0.0000000E+000, 9.9999998E-003
 4.7501000E+002, 6.5655579E+002, 0.0000000E+000, 9.9999998E-003
 4.8001000E+002, 6.5655579E+002, 0.0000000E+000, 9.9999998E-003
 4.8501000E+002, 6.5655573E+002, 0.0000000E+000, 9.9999998E-003
 4.9001000E+002, 6.5655573E+002, 0.0000000E+000, 9.9999998E-003
 4.9501000E+002, 6.5655573E+002, 0.0000000E+000, 9.9999998E-003
 5.0001000E+002, 6.5655573E+002, 0.0000000E+000, 9.9999998E-003
 5.0501000E+002, 6.5655573E+002, 0.0000000E+000, 9.9999998E-003
 5.1001000E+002, 6.5655573E+002, 0.0000000E+000, 9.9999998E-003
 5.1501000E+002, 6.5655573E+002, 0.0000000E+000, 9.9999998E-003
 5.2001000E+002, 6.5655579E+002, 0.0000000E+000, 9.9999998E-003
 5.2501000E+002, 6.5655579E+002, 0.0000000E+000, 9.9999998E-003
 5.3001000E+002, 6.5655579E+002, 0.0000000E+000, 9.9999998E-003
 5.3501000E+002, 6.5655579E+002, 0.0000000E+000, 9.9999998E-003
 5.4001000E+002, 6.5655579E+002, 0.0000000E+000, 9.9999998E-003
 5.4501000E+002, 6.5655579E+002, 0.0000000E+000, 9.9999998E-003
 5.5001000E+002, 6.5655579E+002, 0.0000000E+000, 9.9999998E-003
 5.5501000E+002, 6.5655573E+002, 0.0000000E+000, 9.9999998E-003
 5.6001000E+002, 6.5655573E+002, 0.0000000E+000, 9.9999998E-003
 5.6501000E+002, 6.5655573E+002, 0.0000000E+000, 9.9999998E-003
 5.7001000E+002, 6.5655579E+002, 0.0000000E+000, 9.9999998E-003
 5.7501000E+002, 6.5655573E+002, 0.0000000E+000, 9.9999998E-003
 5.8001000E+002, 6.5655573E+002, 0.0000000E+000, 9.9999998E-003
 5.8501000E+002, 6.5655573E+002, 0.0000000E+000, 9.9999998E-003
 5.9001000E+002, 6.5655573E+002, 0.0000000E+000, 9.9999998E-003
 5.9501000E+002, 6.5655573E+002, 0.0000000E+000, 9.9999998E-003
 6.0001000E+002, 6.5655573E+002, 0.0000000E+000, 9.9999998E-003
 6.0501000E+002, 6.5655573E+002, 0.0000000E+000, 9.9999998E-003
 6.1001000E+002, 6.5655573E+002, 0.0000000E+000, 9.9999998E-003
 6.1501000E+002, 6.5655579E+002, 0.0000000E+000, 9.9999998E-003
 6.2001000E+002, 6.5655573E+002, 0.0000000E+000, 9.9999998E-003
 6.2501000E+002, 6.5655573E+002, 0.0000000E+000, 9.9999998E-003
 6.3001000E+002, 6.5655579E+002, 0.0000000E+000, 9.9999998E-003
 6.3501000E+002, 6.5655579E+002, 0.0000000E+000, 9.9999998E-003
 6.4001000E+002, 6.5655579E+002, 0.0000000E+000, 9.9999998E-003
 6.4501000E+002, 6.5655573E+002, 0.0000000E+000, 9.9999998E-003
 6.5001000E+002, 6.5655573E+002, 0.0000000E+000, 9.9999998E-003
 6.5501000E+002, 6.5655573E+002, 0.0000000E+000, 9.9999998E-003
 6.6001000E+002, 6.5655579E+002, 0.0000000E+000, 9.9999998E-003
 6.6501000E+002, 6.5655579E+002, 0.0000000E+000, 9.9999998E-003
 6.7001000E+002, 6.5655579E+002, 0.0000000E+000, 9.9999998E-003
 6.7501000E+002, 6.5655579E+002, 0.0000000E+000, 9.9999998E-003
 6.8001000E+002, 6.5655579E+002, 0.0000000E+000, 9.9999998E-003
 6.8501000E+002, 6.5655579E+002, 0.0000000E+000, 9.9999998E-003
 6.9001000E+002, 6.5655579E+002, 0.0000000E+000, 9.9999998E-003
 6.9501000E+002, 6.5655579E+002, 0.0000000E+000, 9.9999998E-003
 7.0001000E+002, 6.5655579E+002, 0.0000000E+000, 9.9999998E-003
 7.0501000E+002, 6.5655579E+002, 0.0000000E+000, 9.9999998E-003
 7.1001000E+002, 6.5655579E+002, 0.0000000E+000, 9.9999998E-003
 7.1501000E+002, 6.5655579E+002, 0.0000000E+000, 9.9999998E-003
 7.2001000E+002, 6.5655579E+002, 0.0000000E+000, 9.9999998E-003
 7.2501000E+002, 6.5655579E+002, 0.0000000E+000, 9.9999998E-003
 7.3001000E+002, 6.5655579E+002, 0.0000000E+000, 9.9999998E-003
 7.3501000E+002, 6.5655573E+002, 0.0000000E+000, 9.9999998E-003
 7.4001000E+002, 6.5655573E+002, 0.0000000E+000, 9.9999998E-003
 7.4501000E+002, 6.5655573E+002, 0.0000000E+000, 9.9999998E-003
 7.5001000E+002, 6.5655573E+002, 0.0000000E+000, 9.9999998E-003
 7.5501000E+002, 6.5655579E+002, 0.0000000E+000, 9.9999998E-003
 7.6001000E+002, 6.5655573E+002, 0.0000000E+000, 9.9999998E-003
 7.6501000E+002, 6.5655573E+002, 0.0000000E+000, 9.9999998E-003
 7.7001000E+002, 6.5655573E+002, 0.0000000E+000, 9.9999998E-003
 7.7501000E+002, 6.5655573E+002, 0.0000000E+000, 9.9999998E-003
 7.8001000E+002, 6.5655573E+002, 0.0000000E+000, 9.9999998E-003
 7.8501000E+002, 6.5655579E+002, 0.0000000E+000, 9.9999998E-003
 7.9001000E+002, 6.5655573E+002, 0.0000000E+000, 9.9999998E-003
 7.9501000E+002, 6.5655573E+002, 0.0000000E+000, 9.9999998E-003
 8.0001000E+002, 6.5655573E+002, 0.0000000E+000, 9.9999998E-003
