s,kW,C,kg/s,m,kW/m2
Time,"HRR","temp","MLR","thick","flux"
 0.000E+000, 0.000E+000, 2.000E+001, 0.000E+000, 1.900E-002,-4.813E-011
 2.012E+000, 0.000E+000, 4.328E+001, 9.539E-021, 1.900E-002, 5.002E+001
 4.003E+000, 0.000E+000, 7.532E+001, 3.790E-018, 1.900E-002, 5.012E+001
 6.002E+000, 0.000E+000, 9.850E+001, 2.394E-016, 1.900E-002, 5.022E+001
 8.016E+000, 0.000E+000, 1.176E+002, 5.645E-015, 1.900E-002, 5.028E+001
 1.000E+001, 0.000E+000, 1.340E+002, 7.076E-014, 1.900E-002, 5.033E+001
 1.200E+001, 0.000E+000, 1.486E+002, 5.799E-013, 1.900E-002, 5.037E+001
 1.400E+001, 3.251E-008, 1.617E+002, 3.507E-012, 1.900E-002, 5.040E+001
 1.601E+001, 2.781E-007, 1.740E+002, 1.683E-011, 1.900E-002, 5.049E+001
 1.801E+001, 1.211E-006, 1.854E+002, 6.724E-011, 1.900E-002, 5.056E+001
 2.001E+001, 4.293E-006, 1.959E+002, 2.311E-010, 1.900E-002, 5.055E+001
 2.200E+001, 1.327E-005, 2.057E+002, 7.041E-010, 1.900E-002, 5.054E+001
 2.401E+001, 3.704E-005, 2.151E+002, 1.951E-009, 1.900E-002, 5.062E+001
 2.601E+001, 9.477E-005, 2.243E+002, 4.978E-009, 1.900E-002, 5.075E+001
 2.801E+001, 2.259E-004, 2.330E+002, 1.183E-008, 1.900E-002, 5.078E+001
 3.001E+001, 5.073E-004, 2.413E+002, 2.653E-008, 1.900E-002, 5.079E+001
 3.200E+001, 1.079E-003, 2.494E+002, 5.640E-008, 1.900E-002, 5.089E+001
 3.401E+001, 2.201E-003, 2.572E+002, 1.148E-007, 1.900E-002, 5.089E+001
 3.601E+001, 4.313E-003, 2.649E+002, 2.248E-007, 1.900E-002, 5.101E+001
 3.801E+001, 8.152E-003, 2.722E+002, 4.245E-007, 1.900E-002, 5.098E+001
 4.001E+001, 1.495E-002, 2.795E+002, 7.780E-007, 1.900E-002, 5.110E+001
 4.200E+001, 2.663E-002, 2.865E+002, 1.385E-006, 1.900E-002, 5.107E+001
 4.401E+001, 4.628E-002, 2.936E+002, 2.405E-006, 1.900E-002, 5.122E+001
 4.601E+001, 7.857E-002, 3.004E+002, 4.082E-006, 1.900E-002, 5.123E+001
 4.801E+001, 1.306E-001, 3.070E+002, 6.780E-006, 1.900E-002, 5.127E+001
 5.000E+001, 2.127E-001, 3.135E+002, 1.104E-005, 1.900E-002, 5.134E+001
 5.201E+001, 3.403E-001, 3.197E+002, 1.765E-005, 1.900E-002, 5.123E+001
 5.401E+001, 5.354E-001, 3.257E+002, 2.777E-005, 1.900E-002, 5.126E+001
 5.600E+001, 8.291E-001, 3.319E+002, 4.295E-005, 1.900E-002, 5.138E+001
 5.800E+001, 1.268E+000, 3.379E+002, 6.566E-005, 1.900E-002, 5.143E+001
 6.000E+001, 1.915E+000, 3.442E+002, 9.914E-005, 1.900E-002, 5.160E+001
 6.200E+001, 2.861E+000, 3.506E+002, 1.481E-004, 1.900E-002, 5.178E+001
 6.401E+001, 4.242E+000, 3.574E+002, 2.194E-004, 1.900E-002, 5.183E+001
 6.601E+001, 6.224E+000, 3.644E+002, 3.220E-004, 1.900E-002, 5.250E+001
 6.800E+001, 9.077E+000, 3.712E+002, 4.689E-004, 1.900E-002, 5.327E+001
 7.000E+001, 1.321E+001, 3.791E+002, 6.830E-004, 1.900E-002, 5.596E+001
 7.200E+001, 1.937E+001, 3.885E+002, 1.000E-003, 1.900E-002, 6.006E+001
 7.400E+001, 2.953E+001, 4.030E+002, 1.532E-003, 1.900E-002, 7.119E+001
 7.600E+001, 4.982E+001, 4.212E+002, 2.611E-003, 1.900E-002, 8.245E+001
 7.800E+001, 9.073E+001, 4.358E+002, 4.810E-003, 1.900E-002, 8.506E+001
 8.000E+001, 1.585E+002, 4.446E+002, 8.499E-003, 1.900E-002, 8.357E+001
 8.200E+001, 2.622E+002, 4.518E+002, 1.386E-002, 1.900E-002, 8.307E+001
 8.400E+001, 3.893E+002, 4.581E+002, 2.092E-002, 1.900E-002, 8.181E+001
 8.600E+001, 5.335E+002, 4.664E+002, 2.839E-002, 1.900E-002, 8.148E+001
 8.800E+001, 6.717E+002, 4.810E+002, 3.527E-002, 1.900E-002, 8.216E+001
 9.000E+001, 7.635E+002, 5.098E+002, 3.992E-002, 1.900E-002, 8.313E+001
 9.200E+001, 7.754E+002, 5.431E+002, 3.954E-002, 1.900E-002, 8.232E+001
 9.400E+001, 7.491E+002, 5.528E+002, 3.831E-002, 1.900E-002, 8.235E+001
 9.600E+001, 7.360E+002, 5.601E+002, 3.814E-002, 1.900E-002, 8.202E+001
 9.800E+001, 7.594E+002, 5.695E+002, 3.888E-002, 1.900E-002, 8.227E+001
 1.000E+002, 7.573E+002, 5.823E+002, 3.914E-002, 1.900E-002, 8.259E+001
 1.020E+002, 7.236E+002, 5.979E+002, 3.591E-002, 1.900E-002, 8.268E+001
 1.040E+002, 6.148E+002, 6.234E+002, 3.106E-002, 1.901E-002, 8.581E+001
 1.060E+002, 5.873E+002, 6.319E+002, 3.026E-002, 1.901E-002, 8.414E+001
 1.080E+002, 6.109E+002, 6.322E+002, 3.163E-002, 1.901E-002, 8.337E+001
 1.100E+002, 6.549E+002, 6.345E+002, 3.366E-002, 1.901E-002, 8.272E+001
 1.120E+002, 6.719E+002, 6.381E+002, 3.480E-002, 1.901E-002, 8.244E+001
 1.140E+002, 6.716E+002, 6.437E+002, 3.451E-002, 1.901E-002, 8.277E+001
 1.160E+002, 6.472E+002, 6.486E+002, 3.276E-002, 1.901E-002, 8.185E+001
 1.180E+002, 6.002E+002, 6.585E+002, 3.058E-002, 1.901E-002, 8.370E+001
 1.200E+002, 5.901E+002, 6.676E+002, 3.037E-002, 1.901E-002, 8.334E+001
 1.220E+002, 6.088E+002, 6.726E+002, 3.163E-002, 1.901E-002, 8.363E+001
 1.240E+002, 6.376E+002, 6.793E+002, 3.336E-002, 1.901E-002, 8.412E+001
 1.260E+002, 6.774E+002, 6.766E+002, 3.438E-002, 1.901E-002, 8.297E+001
 1.280E+002, 6.775E+002, 6.817E+002, 3.488E-002, 1.901E-002, 8.433E+001
 1.300E+002, 6.735E+002, 6.937E+002, 3.475E-002, 1.901E-002, 8.755E+001
 1.320E+002, 6.579E+002, 6.928E+002, 3.364E-002, 1.901E-002, 8.468E+001
 1.340E+002, 6.308E+002, 6.941E+002, 3.212E-002, 1.901E-002, 8.384E+001
 1.360E+002, 6.124E+002, 6.994E+002, 3.176E-002, 1.901E-002, 8.523E+001
 1.380E+002, 6.208E+002, 7.002E+002, 3.227E-002, 1.901E-002, 8.281E+001
 1.400E+002, 6.469E+002, 7.129E+002, 3.288E-002, 1.901E-002, 8.844E+001
 1.420E+002, 6.508E+002, 7.071E+002, 3.336E-002, 1.901E-002, 8.366E+001
 1.440E+002, 6.422E+002, 7.058E+002, 3.313E-002, 1.901E-002, 8.251E+001
 1.460E+002, 6.361E+002, 7.069E+002, 3.244E-002, 1.901E-002, 8.312E+001
 1.480E+002, 6.088E+002, 7.101E+002, 3.143E-002, 1.901E-002, 8.354E+001
 1.500E+002, 5.951E+002, 7.130E+002, 3.033E-002, 1.901E-002, 8.376E+001
 1.520E+002, 5.816E+002, 7.174E+002, 2.968E-002, 1.901E-002, 8.449E+001
 1.540E+002, 5.755E+002, 7.162E+002, 2.943E-002, 1.902E-002, 8.279E+001
 1.560E+002, 5.727E+002, 7.198E+002, 2.935E-002, 1.902E-002, 8.423E+001
 1.580E+002, 5.650E+002, 7.247E+002, 2.918E-002, 1.902E-002, 8.475E+001
 1.600E+002, 5.596E+002, 7.225E+002, 2.880E-002, 1.902E-002, 8.301E+001
 1.620E+002, 5.575E+002, 7.237E+002, 2.817E-002, 1.902E-002, 8.384E+001
 1.640E+002, 5.339E+002, 7.243E+002, 2.747E-002, 1.902E-002, 8.270E+001
 1.660E+002, 5.235E+002, 7.251E+002, 2.668E-002, 1.902E-002, 8.344E+001
 1.680E+002, 5.097E+002, 7.289E+002, 2.609E-002, 1.902E-002, 8.381E+001
 1.700E+002, 4.982E+002, 7.282E+002, 2.566E-002, 1.902E-002, 8.261E+001
 1.720E+002, 4.965E+002, 7.309E+002, 2.527E-002, 1.902E-002, 8.426E+001
 1.740E+002, 4.840E+002, 7.358E+002, 2.490E-002, 1.902E-002, 8.474E+001
 1.760E+002, 4.750E+002, 7.384E+002, 2.451E-002, 1.902E-002, 8.511E+001
 1.780E+002, 4.730E+002, 7.370E+002, 2.403E-002, 1.902E-002, 8.344E+001
 1.800E+002, 4.598E+002, 7.337E+002, 2.347E-002, 1.902E-002, 8.263E+001
 1.820E+002, 4.451E+002, 7.387E+002, 2.293E-002, 1.902E-002, 8.437E+001
 1.840E+002, 4.398E+002, 7.378E+002, 2.247E-002, 1.902E-002, 8.333E+001
 1.860E+002, 4.352E+002, 7.414E+002, 2.210E-002, 1.902E-002, 8.501E+001
 1.880E+002, 4.214E+002, 7.492E+002, 2.175E-002, 1.902E-002, 8.718E+001
 1.900E+002, 4.190E+002, 7.451E+002, 2.138E-002, 1.902E-002, 8.383E+001
 1.920E+002, 4.071E+002, 7.503E+002, 2.094E-002, 1.902E-002, 8.727E+001
 1.940E+002, 4.030E+002, 7.553E+002, 2.046E-002, 1.902E-002, 8.813E+001
 1.960E+002, 3.854E+002, 7.499E+002, 1.995E-002, 1.902E-002, 8.344E+001
 1.980E+002, 3.825E+002, 7.453E+002, 1.943E-002, 1.902E-002, 8.297E+001
 2.000E+002, 3.724E+002, 7.478E+002, 1.898E-002, 1.902E-002, 8.432E+001
 2.020E+002, 3.617E+002, 7.465E+002, 1.861E-002, 1.902E-002, 8.283E+001
 2.040E+002, 3.558E+002, 7.524E+002, 1.826E-002, 1.902E-002, 8.584E+001
 2.060E+002, 3.522E+002, 7.498E+002, 1.790E-002, 1.903E-002, 8.338E+001
 2.080E+002, 3.393E+002, 7.520E+002, 1.747E-002, 1.903E-002, 8.415E+001
 2.100E+002, 3.354E+002, 7.647E+002, 1.699E-002, 1.903E-002, 9.061E+001
 2.120E+002, 3.194E+002, 7.646E+002, 1.647E-002, 1.903E-002, 8.743E+001
 2.140E+002, 3.131E+002, 7.691E+002, 1.595E-002, 1.903E-002, 9.037E+001
 2.160E+002, 3.010E+002, 7.626E+002, 1.545E-002, 1.903E-002, 8.477E+001
 2.180E+002, 2.933E+002, 7.590E+002, 1.492E-002, 1.903E-002, 8.457E+001
 2.200E+002, 2.797E+002, 7.616E+002, 1.432E-002, 1.903E-002, 8.637E+001
 2.220E+002, 2.669E+002, 7.675E+002, 1.363E-002, 1.903E-002, 8.801E+001
 2.240E+002, 2.524E+002, 7.745E+002, 1.285E-002, 1.903E-002, 9.055E+001
 2.260E+002, 2.349E+002, 7.778E+002, 1.201E-002, 1.903E-002, 9.014E+001
 2.280E+002, 2.153E+002, 7.753E+002, 1.099E-002, 1.903E-002, 8.843E+001
 2.300E+002, 1.928E+002, 7.704E+002, 9.746E-003, 1.903E-002, 8.696E+001
 2.320E+002, 1.681E+002, 7.753E+002, 8.605E-003, 1.903E-002, 8.775E+001
 2.340E+002, 1.517E+002, 7.710E+002, 7.745E-003, 1.903E-002, 8.612E+001
 2.360E+002, 1.383E+002, 7.685E+002, 7.065E-003, 1.903E-002, 8.436E+001
 2.380E+002, 1.263E+002, 7.482E+002, 6.458E-003, 1.904E-002, 7.524E+001
 2.400E+002, 1.151E+002, 7.398E+002, 5.890E-003, 1.904E-002, 7.294E+001
 2.420E+002, 1.051E+002, 7.326E+002, 5.379E-003, 1.904E-002, 7.032E+001
 2.440E+002, 9.708E+001, 7.252E+002, 4.971E-003, 1.904E-002, 6.892E+001
 2.460E+002, 9.102E+001, 7.227E+002, 4.665E-003, 1.904E-002, 6.856E+001
 2.480E+002, 8.603E+001, 7.152E+002, 4.407E-003, 1.904E-002, 6.651E+001
 2.500E+002, 8.143E+001, 7.097E+002, 4.172E-003, 1.904E-002, 6.569E+001
 2.520E+002, 7.756E+001, 7.032E+002, 3.976E-003, 1.904E-002, 6.349E+001
 2.540E+002, 7.457E+001, 7.028E+002, 3.821E-003, 1.904E-002, 6.395E+001
 2.560E+002, 7.182E+001, 6.972E+002, 3.680E-003, 1.904E-002, 6.263E+001
 2.580E+002, 6.902E+001, 6.902E+002, 3.537E-003, 1.904E-002, 6.035E+001
 2.600E+002, 6.617E+001, 6.828E+002, 3.390E-003, 1.904E-002, 5.919E+001
 2.620E+002, 6.321E+001, 6.841E+002, 3.237E-003, 1.904E-002, 6.020E+001
 2.640E+002, 6.016E+001, 6.848E+002, 3.081E-003, 1.904E-002, 5.984E+001
 2.660E+002, 5.708E+001, 6.755E+002, 2.925E-003, 1.904E-002, 5.738E+001
 2.680E+002, 5.422E+001, 6.666E+002, 2.777E-003, 1.904E-002, 5.631E+001
 2.700E+002, 5.155E+001, 6.695E+002, 2.642E-003, 1.904E-002, 5.730E+001
 2.720E+002, 4.913E+001, 6.637E+002, 2.516E-003, 1.904E-002, 5.605E+001
 2.740E+002, 4.670E+001, 6.621E+002, 2.392E-003, 1.904E-002, 5.609E+001
 2.760E+002, 4.424E+001, 6.609E+002, 2.266E-003, 1.904E-002, 5.592E+001
 2.780E+002, 4.174E+001, 6.609E+002, 2.138E-003, 1.904E-002, 5.587E+001
 2.800E+002, 3.918E+001, 6.597E+002, 2.006E-003, 1.904E-002, 5.576E+001
 2.820E+002, 3.653E+001, 6.546E+002, 1.870E-003, 1.904E-002, 5.472E+001
 2.840E+002, 3.378E+001, 6.485E+002, 1.729E-003, 1.904E-002, 5.381E+001
 2.860E+002, 3.095E+001, 6.506E+002, 1.584E-003, 1.904E-002, 5.448E+001
 2.880E+002, 2.806E+001, 6.537E+002, 1.435E-003, 1.904E-002, 5.477E+001
 2.900E+002, 2.509E+001, 6.464E+002, 1.283E-003, 1.904E-002, 5.355E+001
 2.920E+002, 2.212E+001, 6.438E+002, 1.130E-003, 1.904E-002, 5.336E+001
 2.940E+002, 1.915E+001, 6.399E+002, 9.781E-004, 1.904E-002, 5.278E+001
 2.960E+002, 1.630E+001, 6.303E+002, 8.320E-004, 1.904E-002, 5.164E+001
 2.980E+002, 1.365E+001, 6.314E+002, 6.966E-004, 1.904E-002, 5.214E+001
 3.000E+002, 1.130E+001, 6.350E+002, 5.768E-004, 1.904E-002, 5.272E+001
