s,C,kg/m2/s,m
Time,"temp","MLR","thick"
 0.0000000E+000, 2.0000000E+001, 0.0000000E+000, 3.1099999E-002
 5.0100000E+000, 6.3902641E+001, 0.0000000E+000, 3.1099999E-002
 1.0010000E+001, 1.2428223E+002, 0.0000000E+000, 3.1099999E-002
 1.5010000E+001, 1.6058627E+002, 5.6915629E-020, 3.1099999E-002
 2.0000000E+001, 1.8637878E+002, 1.3781005E-017, 3.1099999E-002
 2.5000000E+001, 2.1886055E+002, 6.3222006E-015, 3.1099999E-002
 3.0000000E+001, 2.4595656E+002, 2.7909812E-013, 3.1099999E-002
 3.5000000E+001, 2.6373145E+002, 4.0903665E-012, 3.1099999E-002
 4.0000000E+001, 2.8285818E+002, 6.6141800E-011, 3.1099999E-002
 4.5010000E+001, 3.0186423E+002, 8.0796125E-010, 3.1099999E-002
 5.0010000E+001, 3.1915344E+002, 6.8241075E-009, 3.1099999E-002
 5.5010000E+001, 3.3479071E+002, 4.2549434E-008, 3.1099999E-002
 6.0010000E+001, 3.4855267E+002, 2.0156510E-007, 3.1099999E-002
 6.5010000E+001, 3.6073254E+002, 7.4568896E-007, 3.1099997E-002
 7.0010000E+001, 3.7124692E+002, 2.1788958E-006, 3.1099990E-002
 7.5000000E+001, 3.7941452E+002, 5.1331131E-006, 3.1099970E-002
 8.0000000E+001, 3.8730096E+002, 1.1559438E-005, 3.1099927E-002
 8.5000000E+001, 3.9555936E+002, 2.6145373E-005, 3.1099828E-002
 9.0000000E+001, 4.0308490E+002, 5.5234810E-005, 3.1099614E-002
 9.5000000E+001, 4.1092947E+002, 1.1487459E-004, 3.1099163E-002
 1.0000000E+002, 4.1814233E+002, 2.2383606E-004, 3.1098258E-002
 1.0500000E+002, 4.2425293E+002, 3.9518881E-004, 3.1096594E-002
 1.1000000E+002, 4.2995013E+002, 6.6243001E-004, 3.1093730E-002
 1.1500000E+002, 4.3470953E+002, 1.0256100E-003, 3.1089116E-002
 1.2000000E+002, 4.3862732E+002, 1.4632727E-003, 3.1082336E-002
 1.2500000E+002, 4.4224484E+002, 2.0080407E-003, 3.1072836E-002
 1.3000000E+002, 4.4494205E+002, 2.5716161E-003, 3.1060288E-002
 1.3500000E+002, 4.4714145E+002, 3.1716060E-003, 3.1044481E-002
 1.4000000E+002, 4.4776663E+002, 3.5231803E-003, 3.1026110E-002
 1.4500000E+002, 4.5005313E+002, 4.3004705E-003, 3.1004740E-002
 1.5000000E+002, 4.5152084E+002, 5.0117639E-003, 3.0978898E-002
 1.5500000E+002, 4.5204416E+002, 5.3617111E-003, 3.0950485E-002
 1.6001000E+002, 4.5303687E+002, 6.1019207E-003, 3.0919025E-002
 1.6501000E+002, 4.5391135E+002, 6.6844984E-003, 3.0883648E-002
 1.7001000E+002, 4.5439505E+002, 7.1662813E-003, 3.0845912E-002
 1.7501000E+002, 4.5540005E+002, 7.9788072E-003, 3.0804126E-002
 1.8001000E+002, 4.5601169E+002, 8.3858818E-003, 3.0759363E-002
 1.8501000E+002, 4.5649338E+002, 9.1653736E-003, 3.0710962E-002
 1.9001000E+002, 4.5644611E+002, 9.4263945E-003, 3.0659765E-002
 1.9501000E+002, 4.5755417E+002, 1.0299475E-002, 3.0605769E-002
 2.0001000E+002, 4.5734326E+002, 1.0591846E-002, 3.0548165E-002
 2.0501000E+002, 4.5768674E+002, 1.1257541E-002, 3.0488314E-002
 2.1001000E+002, 4.5790649E+002, 1.1627457E-002, 3.0425502E-002
 2.1501000E+002, 4.5841122E+002, 1.2388091E-002, 3.0359233E-002
 2.2001000E+002, 4.5876648E+002, 1.2822118E-002, 3.0290455E-002
 2.2501000E+002, 4.5918140E+002, 1.3514080E-002, 3.0217478E-002
 2.3001000E+002, 4.5899280E+002, 1.3935656E-002, 3.0142495E-002
 2.3501000E+002, 4.5925900E+002, 1.4383351E-002, 3.0064393E-002
 2.4001000E+002, 4.5958496E+002, 1.4994009E-002, 2.9983917E-002
 2.4501000E+002, 4.5923859E+002, 1.5232475E-002, 2.9900478E-002
 2.5001000E+002, 4.5958115E+002, 1.5740741E-002, 2.9815705E-002
 2.5501000E+002, 4.5999887E+002, 1.6136566E-002, 2.9728051E-002
 2.6001000E+002, 4.5993192E+002, 1.6512617E-002, 2.9638246E-002
 2.6501000E+002, 4.5970840E+002, 1.6601656E-002, 2.9547416E-002
 2.7001000E+002, 4.5880356E+002, 1.6509814E-002, 2.9457005E-002
 2.7501000E+002, 4.5893146E+002, 1.7253928E-002, 2.9363545E-002
 2.8001000E+002, 4.5888464E+002, 1.7461184E-002, 2.9268362E-002
 2.8501000E+002, 4.5917758E+002, 1.7651569E-002, 2.9171582E-002
 2.9001000E+002, 4.5925751E+002, 1.7761586E-002, 2.9074566E-002
 2.9501000E+002, 4.5937732E+002, 1.7854299E-002, 2.8976440E-002
 3.0001000E+002, 4.5905203E+002, 1.7838638E-002, 2.8878503E-002
 3.0501000E+002, 4.5945389E+002, 1.7930035E-002, 2.8780309E-002
 3.1001000E+002, 4.5982471E+002, 1.8156469E-002, 2.8681189E-002
 3.1501000E+002, 4.5984460E+002, 1.8177710E-002, 2.8581191E-002
 3.2001000E+002, 4.5954507E+002, 1.8079132E-002, 2.8481729E-002
 3.2501000E+002, 4.5982227E+002, 1.8163791E-002, 2.8382115E-002
 3.3001000E+002, 4.5986798E+002, 1.8208278E-002, 2.8282085E-002
 3.3501000E+002, 4.5890149E+002, 1.7944658E-002, 2.8183049E-002
 3.4001000E+002, 4.5954498E+002, 1.8354645E-002, 2.8083252E-002
 3.4501000E+002, 4.5949319E+002, 1.8368602E-002, 2.7982194E-002
 3.5001000E+002, 4.5941934E+002, 1.8399257E-002, 2.7881095E-002
 3.5501000E+002, 4.5996402E+002, 1.8451110E-002, 2.7779954E-002
 3.6001000E+002, 4.5959045E+002, 1.8398248E-002, 2.7678762E-002
 3.6501000E+002, 4.5999561E+002, 1.8434875E-002, 2.7577480E-002
 3.7001000E+002, 4.6002475E+002, 1.8417865E-002, 2.7476132E-002
 3.7501000E+002, 4.6018903E+002, 1.8434860E-002, 2.7374953E-002
 3.8001000E+002, 4.6042987E+002, 1.8394707E-002, 2.7273836E-002
 3.8501000E+002, 4.6058313E+002, 1.8435782E-002, 2.7172646E-002
 3.9001000E+002, 4.6100220E+002, 1.8504901E-002, 2.7071245E-002
 3.9501000E+002, 4.6094336E+002, 1.8395988E-002, 2.6969803E-002
 4.0001000E+002, 4.5996628E+002, 1.8459784E-002, 2.6868515E-002
 4.0501000E+002, 4.6024301E+002, 1.8376647E-002, 2.6767245E-002
 4.1001000E+002, 4.6081946E+002, 1.8399356E-002, 2.6666347E-002
 4.1501000E+002, 4.6102374E+002, 1.8299427E-002, 2.6565470E-002
 4.2001000E+002, 4.6103070E+002, 1.8136600E-002, 2.6465418E-002
 4.2501000E+002, 4.6135211E+002, 1.7993810E-002, 2.6366150E-002
 4.3001000E+002, 4.6114218E+002, 1.7878212E-002, 2.6267333E-002
 4.3501000E+002, 4.6129260E+002, 1.7640995E-002, 2.6170086E-002
 4.4001000E+002, 4.6220547E+002, 1.7635351E-002, 2.6073081E-002
 4.4501000E+002, 4.6306323E+002, 1.7495414E-002, 2.5976533E-002
 4.5001000E+002, 4.6392279E+002, 1.7294509E-002, 2.5880834E-002
 4.5501000E+002, 4.6426727E+002, 1.6756391E-002, 2.5787216E-002
 4.6001000E+002, 4.6538971E+002, 1.6387437E-002, 2.5696339E-002
 4.6501000E+002, 4.6613965E+002, 1.5989881E-002, 2.5607115E-002
 4.7001000E+002, 4.6752759E+002, 1.5381862E-002, 2.5521042E-002
 4.7501000E+002, 4.6959348E+002, 1.4827520E-002, 2.5438197E-002
 4.8001000E+002, 4.7178864E+002, 1.4073644E-002, 2.5358526E-002
 4.8501000E+002, 4.7435681E+002, 1.2885770E-002, 2.5284395E-002
 4.9001000E+002, 4.7783170E+002, 1.2066816E-002, 2.5216028E-002
 4.9501000E+002, 4.8165384E+002, 1.0868010E-002, 2.5152713E-002
 5.0001000E+002, 4.8690265E+002, 9.6052019E-003, 2.5096325E-002
 5.0501000E+002, 4.9471262E+002, 7.9467166E-003, 2.5047954E-002
 5.1001000E+002, 5.1919714E+002, 4.7444277E-003, 2.5010882E-002
 5.1501000E+002, 5.7044348E+002, 0.0000000E+000, 2.5000000E-002
 5.2001000E+002, 5.7713007E+002, 0.0000000E+000, 2.5000000E-002
 5.2501000E+002, 5.7653949E+002, 0.0000000E+000, 2.5000000E-002
 5.3001000E+002, 5.7904266E+002, 0.0000000E+000, 2.5000000E-002
 5.3501000E+002, 5.7982056E+002, 0.0000000E+000, 2.5000000E-002
 5.4001000E+002, 5.7924426E+002, 0.0000000E+000, 2.5000000E-002
 5.4501000E+002, 5.8143512E+002, 0.0000000E+000, 2.5000000E-002
 5.5001000E+002, 5.8004218E+002, 0.0000000E+000, 2.5000000E-002
 5.5501000E+002, 5.8409674E+002, 0.0000000E+000, 2.5000000E-002
 5.6001000E+002, 5.8413190E+002, 0.0000000E+000, 2.5000000E-002
 5.6501000E+002, 5.8211133E+002, 0.0000000E+000, 2.5000000E-002
 5.7001000E+002, 5.8317151E+002, 0.0000000E+000, 2.5000000E-002
 5.7501000E+002, 5.8394397E+002, 0.0000000E+000, 2.5000000E-002
 5.8001000E+002, 5.8441150E+002, 0.0000000E+000, 2.5000000E-002
 5.8501000E+002, 5.8776727E+002, 0.0000000E+000, 2.5000000E-002
 5.9001000E+002, 5.8562872E+002, 0.0000000E+000, 2.5000000E-002
 5.9501000E+002, 5.8587292E+002, 0.0000000E+000, 2.5000000E-002
 6.0001000E+002, 5.8486743E+002, 0.0000000E+000, 2.5000000E-002
 6.0501000E+002, 5.8676459E+002, 0.0000000E+000, 2.5000000E-002
 6.1001000E+002, 5.8762555E+002, 0.0000000E+000, 2.5000000E-002
