s,C,kg/m2/s,m
Time,"temp","MLR","thick"
 0.0000000E+000, 2.0000000E+001, 0.0000000E+000, 3.2234300E-002
 5.0100000E+000, 6.9967896E+001, 0.0000000E+000, 3.2234300E-002
 1.0010000E+001, 1.2929807E+002, 0.0000000E+000, 3.2234300E-002
 1.5010000E+001, 1.6897902E+002, 0.0000000E+000, 3.2234300E-002
 2.0000000E+001, 2.0047708E+002, 0.0000000E+000, 3.2234300E-002
 2.5000000E+001, 2.2700063E+002, 0.0000000E+000, 3.2234300E-002
 3.0000000E+001, 2.5005103E+002, 0.0000000E+000, 3.2234300E-002
 3.5000000E+001, 2.6467087E+002, 4.1647602E-010, 3.2234300E-002
 4.0000000E+001, 2.8383215E+002, 5.2149747E-009, 3.2234300E-002
 4.5010000E+001, 2.9770389E+002, 2.2337838E-008, 3.2234300E-002
 5.0010000E+001, 3.1477377E+002, 1.1882078E-007, 3.2234300E-002
 5.5010000E+001, 3.2724866E+002, 3.6672239E-007, 3.2234300E-002
 6.0010000E+001, 3.4052737E+002, 1.2396835E-006, 3.2234296E-002
 6.5010000E+001, 3.5273495E+002, 3.4532247E-006, 3.2234285E-002
 7.0010000E+001, 3.6291776E+002, 8.2003817E-006, 3.2234263E-002
 7.5000000E+001, 3.7396414E+002, 2.0024348E-005, 3.2234203E-002
 8.0000000E+001, 3.8316672E+002, 4.0800984E-005, 3.2234076E-002
 8.5000000E+001, 3.9202664E+002, 8.1102044E-005, 3.2233819E-002
 9.0000000E+001, 4.0083398E+002, 1.5603918E-004, 3.2233316E-002
 9.5000000E+001, 4.0819507E+002, 2.6661309E-004, 3.2232415E-002
 1.0000000E+002, 4.1539786E+002, 4.4836808E-004, 3.2230891E-002
 1.0500000E+002, 4.2203406E+002, 7.1270083E-004, 3.2228392E-002
 1.1000000E+002, 4.2750372E+002, 1.0408448E-003, 3.2224610E-002
 1.1500000E+002, 4.3259906E+002, 1.4762952E-003, 3.2219175E-002
 1.2000000E+002, 4.3690686E+002, 1.9685398E-003, 3.2211684E-002
 1.2500000E+002, 4.4037515E+002, 2.4803632E-003, 3.2202031E-002
 1.3000000E+002, 4.4348776E+002, 3.0450278E-003, 3.2190025E-002
 1.3500000E+002, 4.4600259E+002, 3.5769450E-003, 3.2175604E-002
 1.4000000E+002, 4.4811472E+002, 4.0935259E-003, 3.2158937E-002
 1.4500000E+002, 4.5002185E+002, 4.6123588E-003, 3.2139994E-002
 1.5000000E+002, 4.5158984E+002, 5.0730291E-003, 3.2118920E-002
 1.5500000E+002, 4.5301801E+002, 5.5322866E-003, 3.2095868E-002
 1.6001000E+002, 4.5429529E+002, 5.9639825E-003, 3.2070827E-002
 1.6501000E+002, 4.5541638E+002, 6.3667404E-003, 3.2043997E-002
 1.7001000E+002, 4.5646432E+002, 6.7645404E-003, 3.2015439E-002
 1.7501000E+002, 4.5739444E+002, 7.1323020E-003, 3.1985220E-002
 1.8001000E+002, 4.5826270E+002, 7.4959164E-003, 3.1953413E-002
 1.8501000E+002, 4.5747147E+002, 7.7242157E-003, 3.1920172E-002
 1.9001000E+002, 4.5617450E+002, 8.0113159E-003, 3.1886164E-002
 1.9501000E+002, 4.5726340E+002, 8.4408550E-003, 3.1850364E-002
 2.0001000E+002, 4.5820892E+002, 8.8095544E-003, 3.1812847E-002
 2.0501000E+002, 4.5906403E+002, 9.1445688E-003, 3.1773806E-002
 2.1001000E+002, 4.5985358E+002, 9.4594089E-003, 3.1733353E-002
 2.1501000E+002, 4.6058301E+002, 9.7577414E-003, 3.1691570E-002
 2.2001000E+002, 4.6125916E+002, 1.0043082E-002, 3.1648520E-002
 2.2501000E+002, 4.6188217E+002, 1.0315644E-002, 3.1604256E-002
 2.3001000E+002, 4.5944705E+002, 1.0372194E-002, 3.1559262E-002
 2.3501000E+002, 4.5987930E+002, 1.0736593E-002, 3.1513423E-002
 2.4001000E+002, 4.6069336E+002, 1.1053710E-002, 3.1466030E-002
 2.4501000E+002, 4.6142883E+002, 1.1335311E-002, 3.1417351E-002
 2.5001000E+002, 4.6211664E+002, 1.1610600E-002, 3.1367466E-002
 2.5501000E+002, 4.6276590E+002, 1.1889136E-002, 3.1316381E-002
 2.6001000E+002, 4.6337799E+002, 1.2172876E-002, 3.1264070E-002
 2.6501000E+002, 4.6092392E+002, 1.2243721E-002, 3.1211041E-002
 2.7001000E+002, 4.6164514E+002, 1.2684023E-002, 3.1156838E-002
 2.7501000E+002, 4.6244083E+002, 1.3042734E-002, 3.1100888E-002
 2.8001000E+002, 4.6316083E+002, 1.3362887E-002, 3.1043474E-002
 2.8501000E+002, 4.6382190E+002, 1.3664168E-002, 3.0984713E-002
 2.9001000E+002, 4.6442880E+002, 1.3953880E-002, 3.0924669E-002
 2.9501000E+002, 4.6204358E+002, 1.4023174E-002, 3.0863937E-002
 3.0001000E+002, 4.6286554E+002, 1.4473009E-002, 3.0801931E-002
 3.0501000E+002, 4.6360828E+002, 1.4809537E-002, 3.0738249E-002
 3.1001000E+002, 4.6427914E+002, 1.5106071E-002, 3.0673204E-002
 3.1501000E+002, 4.6489136E+002, 1.5382819E-002, 3.0606918E-002
 3.2001000E+002, 4.6347205E+002, 1.5474710E-002, 3.0539757E-002
 3.2501000E+002, 4.6338873E+002, 1.5843164E-002, 3.0471792E-002
 3.3001000E+002, 4.6412460E+002, 1.6175332E-002, 3.0402154E-002
 3.3501000E+002, 4.6478119E+002, 1.6452026E-002, 3.0331211E-002
 3.4001000E+002, 4.6537799E+002, 1.6703645E-002, 3.0259127E-002
 3.4501000E+002, 4.6363876E+002, 1.6753187E-002, 3.0186404E-002
 3.5001000E+002, 4.6401184E+002, 1.7133955E-002, 3.0112755E-002
 3.5501000E+002, 4.6470483E+002, 1.7414523E-002, 3.0037619E-002
 3.6001000E+002, 4.6532623E+002, 1.7644221E-002, 2.9961392E-002
 3.6501000E+002, 4.6503256E+002, 1.7746378E-002, 2.9884301E-002
 3.7001000E+002, 4.6394067E+002, 1.7932041E-002, 2.9806957E-002
 3.7501000E+002, 4.6467599E+002, 1.8224563E-002, 2.9728293E-002
 3.8001000E+002, 4.6531296E+002, 1.8422659E-002, 2.9648608E-002
 3.8501000E+002, 4.6586557E+002, 1.8581055E-002, 2.9568149E-002
 3.9001000E+002, 4.6390305E+002, 1.8537868E-002, 2.9487586E-002
 3.9501000E+002, 4.6468961E+002, 1.8847002E-002, 2.9406205E-002
 4.0001000E+002, 4.6533450E+002, 1.9007482E-002, 2.9323889E-002
 4.0501000E+002, 4.6591559E+002, 1.9124206E-002, 2.9240983E-002
 4.1001000E+002, 4.6431989E+002, 1.9044073E-002, 2.9158041E-002
 4.1501000E+002, 4.6473923E+002, 1.9289669E-002, 2.9074697E-002
 4.2001000E+002, 4.6538849E+002, 1.9416768E-002, 2.8990526E-002
 4.2501000E+002, 4.6597256E+002, 1.9497667E-002, 2.8905919E-002
 4.3001000E+002, 4.6454834E+002, 1.9391531E-002, 2.8821377E-002
 4.3501000E+002, 4.6482129E+002, 1.9596379E-002, 2.8736649E-002
 4.4001000E+002, 4.6547372E+002, 1.9699311E-002, 2.8651197E-002
 4.4501000E+002, 4.6606125E+002, 1.9756665E-002, 2.8565412E-002
 4.5001000E+002, 4.6465662E+002, 1.9632610E-002, 2.8479787E-002
 4.5501000E+002, 4.6494083E+002, 1.9819658E-002, 2.8394047E-002
 4.6001000E+002, 4.6559698E+002, 1.9906165E-002, 2.8307661E-002
 4.6501000E+002, 4.6618991E+002, 1.9948661E-002, 2.8221009E-002
 4.7001000E+002, 4.6470721E+002, 1.9812817E-002, 2.8134603E-002
 4.7501000E+002, 4.6510776E+002, 1.9996615E-002, 2.8048059E-002
 4.8001000E+002, 4.6577057E+002, 2.0070350E-002, 2.7960932E-002
 4.8501000E+002, 4.6637244E+002, 2.0100949E-002, 2.7873594E-002
 4.9001000E+002, 4.6474399E+002, 1.9957509E-002, 2.7786588E-002
 4.9501000E+002, 4.6534161E+002, 2.0145409E-002, 2.7699359E-002
 5.0001000E+002, 4.6601749E+002, 2.0205349E-002, 2.7611615E-002
 5.0501000E+002, 4.6658710E+002, 2.0215798E-002, 2.7523719E-002
 5.1001000E+002, 4.6486273E+002, 2.0083850E-002, 2.7436256E-002
 5.1501000E+002, 4.6568030E+002, 2.0269915E-002, 2.7348425E-002
 5.2001000E+002, 4.6638187E+002, 2.0309703E-002, 2.7260186E-002
 5.2501000E+002, 4.6667218E+002, 2.0263581E-002, 2.7171889E-002
 5.3001000E+002, 4.6535873E+002, 2.0220330E-002, 2.7084073E-002
 5.3501000E+002, 4.6620276E+002, 2.0359375E-002, 2.6995769E-002
 5.4001000E+002, 4.6695746E+002, 2.0368394E-002, 2.6907209E-002
 5.4501000E+002, 4.6698648E+002, 2.0276984E-002, 2.6818741E-002
 5.5001000E+002, 4.6615607E+002, 2.0308001E-002, 2.6730699E-002
 5.5501000E+002, 4.6709329E+002, 2.0378700E-002, 2.6642174E-002
 5.6001000E+002, 4.6797491E+002, 2.0346900E-002, 2.6553627E-002
 5.6501000E+002, 4.6786911E+002, 2.0226432E-002, 2.6465347E-002
 5.7001000E+002, 4.6765573E+002, 2.0275319E-002, 2.6377415E-002
 5.7501000E+002, 4.6885559E+002, 2.0247959E-002, 2.6289271E-002
 5.8001000E+002, 4.7009216E+002, 2.0158082E-002, 2.6201423E-002
 5.8501000E+002, 4.7030774E+002, 1.9988058E-002, 2.6114104E-002
 5.9001000E+002, 4.7112723E+002, 1.9923173E-002, 2.6027381E-002
 5.9501000E+002, 4.7320706E+002, 1.9756297E-002, 2.5941091E-002
 6.0001000E+002, 4.7565048E+002, 1.9522665E-002, 2.5855681E-002
 6.0501000E+002, 4.7811102E+002, 1.9088466E-002, 2.5771607E-002
 6.1001000E+002, 4.8208075E+002, 1.8673595E-002, 2.5689591E-002
 6.1501000E+002, 4.8816357E+002, 1.8089134E-002, 2.5609568E-002
 6.2001000E+002, 4.9765753E+002, 1.7063497E-002, 2.5532911E-002
 6.2501000E+002, 5.2140039E+002, 1.3924245E-002, 2.5463570E-002
 6.3001000E+002, 5.3864838E+002, 1.3837188E-004, 2.5434325E-002
 6.3501000E+002, 5.1950842E+002, 0.0000000E+000, 2.5434300E-002
 6.4001000E+002, 5.1539685E+002, 0.0000000E+000, 2.5434300E-002
 6.4501000E+002, 5.1415607E+002, 0.0000000E+000, 2.5434300E-002
 6.5001000E+002, 5.1398962E+002, 0.0000000E+000, 2.5434300E-002
 6.5501000E+002, 5.1432281E+002, 0.0000000E+000, 2.5434300E-002
 6.6001000E+002, 5.1490546E+002, 0.0000000E+000, 2.5434300E-002
 6.6501000E+002, 5.1561218E+002, 0.0000000E+000, 2.5434300E-002
 6.7001000E+002, 5.1637573E+002, 0.0000000E+000, 2.5434300E-002
 6.7501000E+002, 5.1715839E+002, 0.0000000E+000, 2.5434300E-002
 6.8001000E+002, 5.1793835E+002, 0.0000000E+000, 2.5434300E-002
 6.8501000E+002, 5.1870294E+002, 0.0000000E+000, 2.5434300E-002
 6.9001000E+002, 5.1944470E+002, 0.0000000E+000, 2.5434300E-002
 6.9501000E+002, 5.2015961E+002, 0.0000000E+000, 2.5434300E-002
 7.0001000E+002, 5.2084540E+002, 0.0000000E+000, 2.5434300E-002
 7.0501000E+002, 5.2150134E+002, 0.0000000E+000, 2.5434300E-002
 7.1001000E+002, 5.2212726E+002, 0.0000000E+000, 2.5434300E-002
 7.1501000E+002, 5.2272369E+002, 0.0000000E+000, 2.5434300E-002
 7.2001000E+002, 5.2329132E+002, 0.0000000E+000, 2.5434300E-002
 7.2501000E+002, 5.2383099E+002, 0.0000000E+000, 2.5434300E-002
 7.3001000E+002, 5.2434387E+002, 0.0000000E+000, 2.5434300E-002
 7.3501000E+002, 5.2483093E+002, 0.0000000E+000, 2.5434300E-002
 7.4001000E+002, 5.2529321E+002, 0.0000000E+000, 2.5434300E-002
 7.4501000E+002, 5.2573193E+002, 0.0000000E+000, 2.5434300E-002
 7.5001000E+002, 5.2614801E+002, 0.0000000E+000, 2.5434300E-002
