s,C,kg/m2/s,m
Time,"temp","MLR","thick"
 0.0000000E+000, 2.0000000E+001, 0.0000000E+000, 3.2234300E-002
 5.0100000E+000, 8.1115952E+001, 0.0000000E+000, 3.2234300E-002
 1.0010000E+001, 1.4362764E+002, 0.0000000E+000, 3.2234300E-002
 1.5010000E+001, 1.8174619E+002, 0.0000000E+000, 3.2234300E-002
 2.0000000E+001, 2.1059528E+002, 0.0000000E+000, 3.2234300E-002
 2.5000000E+001, 2.3407599E+002, 0.0000000E+000, 3.2234300E-002
 3.0000000E+001, 2.5379634E+002, 2.0510202E-012, 3.2234300E-002
 3.5000000E+001, 2.6560373E+002, 5.9679517E-010, 3.2234300E-002
 4.0000000E+001, 2.8372821E+002, 5.0754849E-009, 3.2234300E-002
 4.5010000E+001, 2.9561520E+002, 1.6110896E-008, 3.2234300E-002
 5.0010000E+001, 3.0553671E+002, 4.9785548E-008, 3.2234300E-002
 5.5010000E+001, 3.1990424E+002, 1.9585632E-007, 3.2234300E-002
 6.0010000E+001, 3.3186292E+002, 5.8640410E-007, 3.2234296E-002
 6.5010000E+001, 3.4240421E+002, 1.4963697E-006, 3.2234292E-002
 7.0010000E+001, 3.5195648E+002, 3.4150896E-006, 3.2234285E-002
 7.5000000E+001, 3.6079660E+002, 7.1636609E-006, 3.2234263E-002
 8.0000000E+001, 3.6685419E+002, 1.1663186E-005, 3.2234222E-002
 8.5000000E+001, 3.7098676E+002, 1.6485697E-005, 3.2234158E-002
 9.0000000E+001, 3.7739563E+002, 2.8220737E-005, 3.2234065E-002
 9.5000000E+001, 3.8495398E+002, 5.1455161E-005, 3.2233898E-002
 1.0000000E+002, 3.9224652E+002, 9.0316760E-005, 3.2233596E-002
 1.0500000E+002, 3.9930975E+002, 1.5314683E-004, 3.2233078E-002
 1.1000000E+002, 4.0515924E+002, 2.3996206E-004, 3.2232229E-002
 1.1500000E+002, 4.1053732E+002, 3.5652926E-004, 3.2230947E-002
 1.2000000E+002, 4.1590677E+002, 5.2099355E-004, 3.2229058E-002
 1.2500000E+002, 4.2060623E+002, 7.3046348E-004, 3.2226343E-002
 1.3000000E+002, 4.2448260E+002, 9.6585823E-004, 3.2222673E-002
 1.3500000E+002, 4.2818628E+002, 1.2537730E-003, 3.2217849E-002
 1.4000000E+002, 4.3155124E+002, 1.5723138E-003, 3.2211736E-002
 1.4500000E+002, 4.3397778E+002, 1.8854360E-003, 3.2204200E-002
 1.5000000E+002, 4.3642853E+002, 2.2085949E-003, 3.2195311E-002
 1.5500000E+002, 4.3696085E+002, 2.3581788E-003, 3.2185234E-002
 1.6001000E+002, 4.3809241E+002, 2.5694387E-003, 3.2174636E-002
 1.6501000E+002, 4.3983249E+002, 2.8703145E-003, 3.2162841E-002
 1.7001000E+002, 4.4127963E+002, 3.1913552E-003, 3.2149632E-002
 1.7501000E+002, 4.4232089E+002, 3.4591155E-003, 3.2135081E-002
 1.8001000E+002, 4.4345071E+002, 3.8454751E-003, 3.2119352E-002
 1.8501000E+002, 4.4554907E+002, 4.3581165E-003, 3.2101538E-002
 1.9001000E+002, 4.4666495E+002, 4.7343657E-003, 3.2081570E-002
 1.9501000E+002, 4.4749774E+002, 5.1170606E-003, 3.2060385E-002
 2.0001000E+002, 4.4888120E+002, 5.5835475E-003, 3.2037016E-002
 2.0501000E+002, 4.4892905E+002, 5.7393755E-003, 3.2012377E-002
 2.1001000E+002, 4.4991779E+002, 6.1603407E-003, 3.1986542E-002
 2.1501000E+002, 4.5044824E+002, 6.4154584E-003, 3.1959012E-002
 2.2001000E+002, 4.5124808E+002, 6.8089222E-003, 3.1930499E-002
 2.2501000E+002, 4.5142130E+002, 6.9831111E-003, 3.1900294E-002
 2.3001000E+002, 4.5198676E+002, 7.3456564E-003, 3.1869326E-002
 2.3501000E+002, 4.5243893E+002, 7.6002171E-003, 3.1836603E-002
 2.4001000E+002, 4.5329105E+002, 8.0421092E-003, 3.1802874E-002
 2.4501000E+002, 4.5339813E+002, 8.2487157E-003, 3.1767264E-002
 2.5001000E+002, 4.5380600E+002, 8.5967425E-003, 3.1730812E-002
 2.5501000E+002, 4.5390170E+002, 8.8112103E-003, 3.1692881E-002
 2.6001000E+002, 4.5467859E+002, 9.2369867E-003, 3.1653669E-002
 2.6501000E+002, 4.5495184E+002, 9.5615610E-003, 3.1612929E-002
 2.7001000E+002, 4.5540622E+002, 9.9035669E-003, 3.1570338E-002
 2.7501000E+002, 4.5599771E+002, 1.0337776E-002, 3.1526629E-002
 2.8001000E+002, 4.5606818E+002, 1.0571156E-002, 3.1481113E-002
 2.8501000E+002, 4.5681732E+002, 1.1046967E-002, 3.1433880E-002
 2.9001000E+002, 4.5708655E+002, 1.1417849E-002, 3.1385232E-002
 2.9501000E+002, 4.5697949E+002, 1.1593297E-002, 3.1335134E-002
 3.0001000E+002, 4.5709152E+002, 1.1858693E-002, 3.1283982E-002
 3.0501000E+002, 4.5769714E+002, 1.2281545E-002, 3.1231871E-002
 3.1001000E+002, 4.5780557E+002, 1.2566295E-002, 3.1177744E-002
 3.1501000E+002, 4.5398627E+002, 1.1695651E-002, 3.1125277E-002
 3.2001000E+002, 4.5505014E+002, 1.2701810E-002, 3.1071965E-002
 3.2501000E+002, 4.5581732E+002, 1.3499930E-002, 3.1015128E-002
 3.3001000E+002, 4.5571057E+002, 1.3819685E-002, 3.0955484E-002
 3.3501000E+002, 4.5635745E+002, 1.4267362E-002, 3.0894518E-002
 3.4001000E+002, 4.5637918E+002, 1.4555572E-002, 3.0831937E-002
 3.4501000E+002, 4.5656662E+002, 1.4782062E-002, 3.0767975E-002
 3.5001000E+002, 4.5725323E+002, 1.5217692E-002, 3.0702846E-002
 3.5501000E+002, 4.5714044E+002, 1.5364032E-002, 3.0636474E-002
 3.6001000E+002, 4.5725229E+002, 1.5553760E-002, 3.0568924E-002
 3.6501000E+002, 4.5771078E+002, 1.5833741E-002, 3.0500948E-002
 3.7001000E+002, 4.5761542E+002, 1.5963346E-002, 3.0431792E-002
 3.7501000E+002, 4.5784106E+002, 1.6119674E-002, 3.0361883E-002
 3.8001000E+002, 4.5825394E+002, 1.6384957E-002, 3.0291302E-002
 3.8501000E+002, 4.5764648E+002, 1.6263641E-002, 3.0220514E-002
 3.9001000E+002, 4.5842889E+002, 1.6579131E-002, 3.0148847E-002
 3.9501000E+002, 4.5854459E+002, 1.6714744E-002, 3.0076420E-002
 4.0001000E+002, 4.5827502E+002, 1.6680848E-002, 3.0004065E-002
 4.0501000E+002, 4.5864563E+002, 1.6814563E-002, 2.9931111E-002
 4.1001000E+002, 4.5892099E+002, 1.6965611E-002, 2.9857621E-002
 4.1501000E+002, 4.5884756E+002, 1.6988298E-002, 2.9783957E-002
 4.2001000E+002, 4.5913327E+002, 1.7088793E-002, 2.9709766E-002
 4.2501000E+002, 4.5953510E+002, 1.7244577E-002, 2.9635048E-002
 4.3001000E+002, 4.5934253E+002, 1.7219348E-002, 2.9560219E-002
 4.3501000E+002, 4.5653040E+002, 1.6574124E-002, 2.9487021E-002
 4.4001000E+002, 4.5742615E+002, 1.7203152E-002, 2.9413272E-002
 4.4501000E+002, 4.5776157E+002, 1.7423207E-002, 2.9338146E-002
 4.5001000E+002, 4.5754837E+002, 1.7338641E-002, 2.9262418E-002
 4.5501000E+002, 4.5788577E+002, 1.7408784E-002, 2.9186867E-002
 4.6001000E+002, 4.5800577E+002, 1.7477302E-002, 2.9111208E-002
 4.6501000E+002, 4.5801340E+002, 1.7423518E-002, 2.9035088E-002
 4.7001000E+002, 4.5866049E+002, 1.7599883E-002, 2.8959183E-002
 4.7501000E+002, 4.5827597E+002, 1.7483246E-002, 2.8882880E-002
 4.8001000E+002, 4.5891129E+002, 1.7598834E-002, 2.8806493E-002
 4.8501000E+002, 4.5893750E+002, 1.7624475E-002, 2.8729986E-002
 4.9001000E+002, 4.5930643E+002, 1.7678829E-002, 2.8653283E-002
 4.9501000E+002, 4.5948572E+002, 1.7709794E-002, 2.8576201E-002
 5.0001000E+002, 4.5939713E+002, 1.7672803E-002, 2.8499408E-002
 5.0501000E+002, 4.5968286E+002, 1.7668178E-002, 2.8422555E-002
 5.1001000E+002, 4.6003113E+002, 1.7736221E-002, 2.8345544E-002
 5.1501000E+002, 4.6003476E+002, 1.7747240E-002, 2.8268503E-002
 5.2001000E+002, 4.5995987E+002, 1.7608831E-002, 2.8191512E-002
 5.2501000E+002, 4.6059888E+002, 1.7768182E-002, 2.8114704E-002
 5.3001000E+002, 4.6040579E+002, 1.7712086E-002, 2.8037539E-002
 5.3501000E+002, 4.6059439E+002, 1.7647943E-002, 2.7960600E-002
 5.4001000E+002, 4.5884726E+002, 1.7421061E-002, 2.7884156E-002
 5.4501000E+002, 4.5777682E+002, 1.7665235E-002, 2.7808283E-002
 5.5001000E+002, 4.5824268E+002, 1.7797714E-002, 2.7731055E-002
 5.5501000E+002, 4.5879919E+002, 1.7875465E-002, 2.7653599E-002
 5.6001000E+002, 4.5893863E+002, 1.7891385E-002, 2.7575705E-002
 5.6501000E+002, 4.5936896E+002, 1.7888993E-002, 2.7497936E-002
 5.7001000E+002, 4.5938376E+002, 1.7794440E-002, 2.7420467E-002
 5.7501000E+002, 4.6006076E+002, 1.7878989E-002, 2.7342835E-002
 5.8001000E+002, 4.6033484E+002, 1.7918913E-002, 2.7265048E-002
 5.8501000E+002, 4.6080099E+002, 1.7905347E-002, 2.7187118E-002
 5.9001000E+002, 4.6081265E+002, 1.7829347E-002, 2.7109530E-002
 5.9501000E+002, 4.5863345E+002, 1.7685736E-002, 2.7032426E-002
 6.0001000E+002, 4.5953070E+002, 1.7857682E-002, 2.6954940E-002
 6.0501000E+002, 4.5974109E+002, 1.7794829E-002, 2.6877472E-002
 6.1001000E+002, 4.6041440E+002, 1.7792802E-002, 2.6800189E-002
 6.1501000E+002, 4.6109641E+002, 1.7752275E-002, 2.6722852E-002
 6.2001000E+002, 4.6131006E+002, 1.7731506E-002, 2.6645666E-002
 6.2501000E+002, 4.6232037E+002, 1.7728772E-002, 2.6568599E-002
 6.3001000E+002, 4.6296057E+002, 1.7711367E-002, 2.6491631E-002
 6.3501000E+002, 4.6353809E+002, 1.7639052E-002, 2.6414750E-002
 6.4001000E+002, 4.6451498E+002, 1.7620789E-002, 2.6337998E-002
 6.4501000E+002, 4.6367859E+002, 1.7376997E-002, 2.6261955E-002
 6.5001000E+002, 4.6284955E+002, 1.7393162E-002, 2.6186423E-002
 6.5501000E+002, 4.6451697E+002, 1.7321169E-002, 2.6110850E-002
 6.6001000E+002, 4.6582074E+002, 1.6992740E-002, 2.6036207E-002
 6.6501000E+002, 4.6803622E+002, 1.6960533E-002, 2.5962548E-002
 6.7001000E+002, 4.7009567E+002, 1.6762109E-002, 2.5889058E-002
 6.7501000E+002, 4.7070020E+002, 1.6350685E-002, 2.5817158E-002
 6.8001000E+002, 4.7423624E+002, 1.6221339E-002, 2.5746454E-002
 6.8501000E+002, 4.7846335E+002, 1.5760932E-002, 2.5676684E-002
 6.9001000E+002, 4.8373572E+002, 1.5094724E-002, 2.5609702E-002
 6.9501000E+002, 4.9152637E+002, 1.4388022E-002, 2.5545346E-002
 7.0001000E+002, 5.0475400E+002, 1.2923790E-002, 2.5485430E-002
 7.0501000E+002, 5.2429675E+002, 5.3076111E-003, 2.5440859E-002
 7.1001000E+002, 4.5698349E+002, 0.0000000E+000, 2.5434300E-002
 7.1501000E+002, 4.2745255E+002, 0.0000000E+000, 2.5434300E-002
 7.2001000E+002, 4.1384088E+002, 0.0000000E+000, 2.5434300E-002
 7.2501000E+002, 4.0657269E+002, 0.0000000E+000, 2.5434300E-002
 7.3001000E+002, 3.9975067E+002, 0.0000000E+000, 2.5434300E-002
 7.3501000E+002, 3.9629791E+002, 0.0000000E+000, 2.5434300E-002
 7.4001000E+002, 3.9431503E+002, 0.0000000E+000, 2.5434300E-002
 7.4501000E+002, 3.9317517E+002, 0.0000000E+000, 2.5434300E-002
 7.5001000E+002, 3.9147922E+002, 0.0000000E+000, 2.5434300E-002
