s,C,kg/m2/s,m
Time,"temp","MLR","thick"
 0.0000000E+000, 2.0000000E+001, 0.0000000E+000, 3.1534299E-002
 5.1000000E+000, 7.3974731E+001, 0.0000000E+000, 3.1534299E-002
 1.0100000E+001, 1.3668521E+002, 0.0000000E+000, 3.1534299E-002
 1.5100000E+001, 1.6727676E+002, 2.7754438E-019, 3.1534299E-002
 2.0000000E+001, 1.9491826E+002, 9.2101730E-017, 3.1534299E-002
 2.5000000E+001, 2.2799141E+002, 2.2041529E-014, 3.1534299E-002
 3.0000000E+001, 2.5070297E+002, 5.1903311E-013, 3.1534299E-002
 3.5000000E+001, 2.6876254E+002, 8.5472610E-012, 3.1534299E-002
 4.0000000E+001, 2.8832877E+002, 1.3251295E-010, 3.1534299E-002
 4.5000000E+001, 3.0651706E+002, 1.3984675E-009, 3.1534299E-002
 5.0000000E+001, 3.2286005E+002, 1.0265100E-008, 3.1534299E-002
 5.5000000E+001, 3.3788837E+002, 5.8052578E-008, 3.1534299E-002
 6.0000000E+001, 3.5050397E+002, 2.4123517E-007, 3.1534299E-002
 6.5000000E+001, 3.6089062E+002, 7.4496262E-007, 3.1534296E-002
 7.0000000E+001, 3.6982547E+002, 1.9041727E-006, 3.1534288E-002
 7.5048280E+001, 3.7830542E+002, 4.5874108E-006, 3.1534273E-002
 8.0037184E+001, 3.8637909E+002, 1.0533766E-005, 3.1534232E-002
 8.5026088E+001, 3.9446384E+002, 2.3396766E-005, 3.1534143E-002
 9.0014991E+001, 4.0189679E+002, 4.8764643E-005, 3.1533953E-002
 9.5003895E+001, 4.0920209E+002, 9.7262913E-005, 3.1533562E-002
 1.0007881E+002, 4.1565430E+002, 1.7984321E-004, 3.1532813E-002
 1.0504997E+002, 4.2197144E+002, 3.1842123E-004, 3.1531461E-002
 1.1000964E+002, 4.2789478E+002, 5.3806050E-004, 3.1529155E-002
 1.1503639E+002, 4.3248447E+002, 8.3309959E-004, 3.1525403E-002
 1.2007103E+002, 4.3641403E+002, 1.2001472E-003, 3.1519808E-002
 1.2501887E+002, 4.3988306E+002, 1.6439070E-003, 3.1512029E-002
 1.3005351E+002, 4.4294016E+002, 2.1526988E-003, 3.1501632E-002
 1.3500135E+002, 4.4532004E+002, 2.7110407E-003, 3.1488232E-002
 1.4003600E+002, 4.4688687E+002, 3.1651971E-003, 3.1471945E-002
 1.4507064E+002, 4.4787564E+002, 3.6087693E-003, 3.1453453E-002
 1.5001848E+002, 4.5045432E+002, 4.3986659E-003, 3.1431455E-002
 1.5505312E+002, 4.5173666E+002, 5.0411276E-003, 3.1405464E-002
 1.6000096E+002, 4.5161029E+002, 5.2641355E-003, 3.1377241E-002
 1.6503560E+002, 4.5267996E+002, 5.9601418E-003, 3.1346366E-002
 1.7007025E+002, 4.5324423E+002, 6.3949879E-003, 3.1311870E-002
 1.7501808E+002, 4.5380209E+002, 6.8747639E-003, 3.1275872E-002
 1.8005273E+002, 4.5456494E+002, 7.5482852E-003, 3.1236148E-002
 1.8500057E+002, 4.5460718E+002, 7.7649304E-003, 3.1194169E-002
 1.9003521E+002, 4.5579373E+002, 8.5909739E-003, 3.1149378E-002
 1.9506985E+002, 4.5585153E+002, 8.8856332E-003, 3.1100675E-002
 2.0001769E+002, 4.5693607E+002, 9.6826060E-003, 3.1050036E-002
 2.0505233E+002, 4.5430865E+002, 8.7083858E-003, 3.0999321E-002
 2.1000017E+002, 4.5536328E+002, 9.7865388E-003, 3.0949136E-002
 2.1503481E+002, 4.5535431E+002, 1.0540392E-002, 3.0893121E-002
 2.2006524E+002, 4.5590060E+002, 1.1474050E-002, 3.0832274E-002
 2.2504239E+002, 4.5646671E+002, 1.2082228E-002, 3.0767316E-002
 2.3001953E+002, 4.5661227E+002, 1.2808883E-002, 3.0699177E-002
 2.3507963E+002, 4.5639761E+002, 1.3043726E-002, 3.0627884E-002
 2.4005678E+002, 4.5688538E+002, 1.3702530E-002, 3.0554157E-002
 2.4503393E+002, 4.5727124E+002, 1.4085438E-002, 3.0478124E-002
 2.5001108E+002, 4.5758511E+002, 1.4696902E-002, 3.0399330E-002
 2.5507118E+002, 4.5749231E+002, 1.4923103E-002, 3.0317673E-002
 2.6004833E+002, 4.5800558E+002, 1.5517100E-002, 3.0233663E-002
 2.6502547E+002, 4.5767987E+002, 1.5657874E-002, 3.0148502E-002
 2.7000262E+002, 4.5816605E+002, 1.6159287E-002, 3.0061385E-002
 2.7506272E+002, 4.5772351E+002, 1.6232898E-002, 2.9972108E-002
 2.8003987E+002, 4.5835468E+002, 1.6694371E-002, 2.9881269E-002
 2.8501702E+002, 4.5806863E+002, 1.6773367E-002, 2.9789744E-002
 2.9007712E+002, 4.5849356E+002, 1.7126728E-002, 2.9696135E-002
 2.9505426E+002, 4.5871567E+002, 1.7265957E-002, 2.9601464E-002
 3.0003141E+002, 4.5937973E+002, 1.7671667E-002, 2.9505730E-002
 3.0500856E+002, 4.5765146E+002, 1.7143523E-002, 2.9410120E-002
 3.1006866E+002, 4.5794583E+002, 1.7659409E-002, 2.9314730E-002
 3.1504581E+002, 4.5771271E+002, 1.7736314E-002, 2.9216761E-002
 3.2002296E+002, 4.5778345E+002, 1.7903455E-002, 2.9119449E-002
 3.2500010E+002, 4.5804440E+002, 1.7944271E-002, 2.9021328E-002
 3.3006020E+002, 4.5820441E+002, 1.8100720E-002, 2.8922105E-002
 3.3503735E+002, 4.5863354E+002, 1.8225335E-002, 2.8821716E-002
 3.4001450E+002, 4.5852313E+002, 1.8218165E-002, 2.8722160E-002
 3.4507460E+002, 4.5863718E+002, 1.8261028E-002, 2.8621497E-002
 3.5005175E+002, 4.5887039E+002, 1.8260557E-002, 2.8520847E-002
 3.5502890E+002, 4.5875787E+002, 1.8323148E-002, 2.8420700E-002
 3.6000604E+002, 4.5917303E+002, 1.8326763E-002, 2.8320558E-002
 3.6506614E+002, 4.5895291E+002, 1.8315863E-002, 2.8219555E-002
 3.7004329E+002, 4.5945569E+002, 1.8384922E-002, 2.8118391E-002
 3.7502044E+002, 4.5944278E+002, 1.8363826E-002, 2.8017754E-002
 3.8008054E+002, 4.5984372E+002, 1.8488048E-002, 2.7916271E-002
 3.8505769E+002, 4.5906766E+002, 1.8518172E-002, 2.7813984E-002
 3.9003484E+002, 4.5843152E+002, 1.8592376E-002, 2.7712710E-002
 3.9501198E+002, 4.5841269E+002, 1.8465800E-002, 2.7611254E-002
 4.0007208E+002, 4.5888168E+002, 1.8489452E-002, 2.7509388E-002
 4.0504923E+002, 4.5889645E+002, 1.8477153E-002, 2.7407395E-002
 4.1002638E+002, 4.5930548E+002, 1.8442765E-002, 2.7306516E-002
 4.1502610E+002, 4.6009595E+002, 1.8543739E-002, 2.7205203E-002
 4.2002330E+002, 4.6011191E+002, 1.8495241E-002, 2.7103256E-002
 4.2502051E+002, 4.5877289E+002, 1.8233115E-002, 2.7002513E-002
 4.3001771E+002, 4.5924136E+002, 1.8294528E-002, 2.6902374E-002
 4.3501491E+002, 4.6001074E+002, 1.8363688E-002, 2.6801625E-002
 4.4001212E+002, 4.6037314E+002, 1.8219458E-002, 2.6701190E-002
 4.4500932E+002, 4.6099915E+002, 1.8120168E-002, 2.6601413E-002
 4.5000652E+002, 4.6206351E+002, 1.8209344E-002, 2.6501505E-002
 4.5500373E+002, 4.6276062E+002, 1.8058470E-002, 2.6402054E-002
 4.6000093E+002, 4.6351669E+002, 1.7893381E-002, 2.6303286E-002
 4.6508005E+002, 4.6328714E+002, 1.7545475E-002, 2.6205132E-002
 4.7005559E+002, 4.6500223E+002, 1.7535392E-002, 2.6108297E-002
 4.7506587E+002, 4.6645975E+002, 1.7152181E-002, 2.6013028E-002
 4.8007614E+002, 4.6886530E+002, 1.6918769E-002, 2.5919298E-002
 4.8508641E+002, 4.7207220E+002, 1.6504321E-002, 2.5826875E-002
 4.9000879E+002, 4.7603189E+002, 1.6015612E-002, 2.5738571E-002
 4.9501906E+002, 4.8110583E+002, 1.5660960E-002, 2.5651943E-002
 5.0002934E+002, 4.8826501E+002, 1.5053473E-002, 2.5567364E-002
 5.0503961E+002, 5.0193607E+002, 1.3827906E-002, 2.5487475E-002
 5.1001421E+002, 4.9849792E+002, 2.8987939E-003, 2.5436381E-002
 5.1500957E+002, 4.4183966E+002, 0.0000000E+000, 2.5434300E-002
 5.2000492E+002, 4.2279483E+002, 0.0000000E+000, 2.5434300E-002
 5.2500027E+002, 4.1193713E+002, 0.0000000E+000, 2.5434300E-002
 5.3007751E+002, 4.0520282E+002, 0.0000000E+000, 2.5434300E-002
 5.3507287E+002, 4.0092496E+002, 0.0000000E+000, 2.5434300E-002
 5.4006822E+002, 3.9882999E+002, 0.0000000E+000, 2.5434300E-002
 5.4506357E+002, 3.9719077E+002, 0.0000000E+000, 2.5434300E-002
 5.5005893E+002, 3.9324072E+002, 0.0000000E+000, 2.5434300E-002
 5.5505428E+002, 3.9372067E+002, 0.0000000E+000, 2.5434300E-002
 5.6004963E+002, 3.8978836E+002, 0.0000000E+000, 2.5434300E-002
 5.6504498E+002, 3.8876935E+002, 0.0000000E+000, 2.5434300E-002
 5.7004034E+002, 3.8729794E+002, 0.0000000E+000, 2.5434300E-002
 5.7503569E+002, 3.8427438E+002, 0.0000000E+000, 2.5434300E-002
 5.8003104E+002, 3.8281732E+002, 0.0000000E+000, 2.5434300E-002
 5.8502639E+002, 3.8422809E+002, 0.0000000E+000, 2.5434300E-002
 5.9002175E+002, 3.8108963E+002, 0.0000000E+000, 2.5434300E-002
 5.9501710E+002, 3.8057639E+002, 0.0000000E+000, 2.5434300E-002
 6.0001245E+002, 3.8068564E+002, 0.0000000E+000, 2.5434300E-002
 6.0500781E+002, 3.7950558E+002, 0.0000000E+000, 2.5434300E-002
 6.1000316E+002, 3.7870026E+002, 0.0000000E+000, 2.5434300E-002
 6.1508040E+002, 3.7726425E+002, 0.0000000E+000, 2.5434300E-002
 6.2007575E+002, 3.7672531E+002, 0.0000000E+000, 2.5434300E-002
 6.2507111E+002, 3.7730615E+002, 0.0000000E+000, 2.5434300E-002
 6.3006646E+002, 3.7664618E+002, 0.0000000E+000, 2.5434300E-002
 6.3506181E+002, 3.7421613E+002, 0.0000000E+000, 2.5434300E-002
 6.4005717E+002, 3.7454706E+002, 0.0000000E+000, 2.5434300E-002
 6.4505252E+002, 3.7401172E+002, 0.0000000E+000, 2.5434300E-002
 6.5004787E+002, 3.7506696E+002, 0.0000000E+000, 2.5434300E-002
 6.5504322E+002, 3.7284979E+002, 0.0000000E+000, 2.5434300E-002
 6.6003858E+002, 3.7159207E+002, 0.0000000E+000, 2.5434300E-002
 6.6503393E+002, 3.7121161E+002, 0.0000000E+000, 2.5434300E-002
 6.7002928E+002, 3.7194907E+002, 0.0000000E+000, 2.5434300E-002
 6.7502463E+002, 3.7018573E+002, 0.0000000E+000, 2.5434300E-002
 6.8001999E+002, 3.7057394E+002, 0.0000000E+000, 2.5434300E-002
 6.8501534E+002, 3.7062201E+002, 0.0000000E+000, 2.5434300E-002
 6.9001069E+002, 3.7039972E+002, 0.0000000E+000, 2.5434300E-002
 6.9500605E+002, 3.7124744E+002, 0.0000000E+000, 2.5434300E-002
 7.0000140E+002, 3.7228946E+002, 0.0000000E+000, 2.5434300E-002
