s,C,kg/m2/s,m
Time,"temp","MLR","thick"
 0.0000000E+000, 2.0000000E+001, 0.0000000E+000, 3.0999999E-002
 5.0100000E+000, 7.7616737E+001, 1.6984980E-012, 3.0999999E-002
 1.0010000E+001, 1.4368945E+002, 8.2666640E-010, 3.0999999E-002
 1.5010000E+001, 1.8660768E+002, 3.5364426E-008, 3.0999999E-002
 2.0000000E+001, 2.1988960E+002, 4.9059980E-007, 3.0999999E-002
 2.5000000E+001, 2.4736456E+002, 3.5538126E-006, 3.0999994E-002
 3.0000000E+001, 2.7063129E+002, 1.6717353E-005, 3.0999962E-002
 3.5000000E+001, 2.9021213E+002, 5.6911627E-005, 3.0999845E-002
 4.0000000E+001, 3.0650995E+002, 1.5047431E-004, 3.0999500E-002
 4.5010000E+001, 3.2063889E+002, 3.3505078E-004, 3.0998679E-002
 5.0010000E+001, 3.3227679E+002, 6.3430186E-004, 3.0997014E-002
 5.5010000E+001, 3.4151804E+002, 1.0464187E-003, 3.0994086E-002
 6.0010000E+001, 3.4899075E+002, 1.5452281E-003, 3.0989567E-002
 6.5010000E+001, 3.5412396E+002, 2.0476615E-003, 3.0983251E-002
 7.0010000E+001, 3.5839758E+002, 2.5571436E-003, 3.0975167E-002
 7.5000000E+001, 3.6136630E+002, 3.0158565E-003, 3.0965377E-002
 8.0000000E+001, 3.6364359E+002, 3.4073235E-003, 3.0954054E-002
 8.5000000E+001, 3.6493039E+002, 3.7847992E-003, 3.0941509E-002
 9.0000000E+001, 3.6714938E+002, 4.2329230E-003, 3.0927451E-002
 9.5000000E+001, 3.6850790E+002, 4.5916741E-003, 3.0911919E-002
 1.0000000E+002, 3.6915384E+002, 4.8227669E-003, 3.0895336E-002
 1.0500000E+002, 3.7016730E+002, 5.1932083E-003, 3.0877857E-002
 1.1000000E+002, 3.7183319E+002, 5.6080860E-003, 3.0858867E-002
 1.1500000E+002, 3.7242062E+002, 5.8376524E-003, 3.0838691E-002
 1.2000000E+002, 3.7308096E+002, 6.1722477E-003, 3.0817756E-002
 1.2500000E+002, 3.7406149E+002, 6.5162163E-003, 3.0795434E-002
 1.3000000E+002, 3.7372717E+002, 6.6156569E-003, 3.0772310E-002
 1.3500000E+002, 3.7453253E+002, 6.9577033E-003, 3.0748636E-002
 1.4000000E+002, 3.7547525E+002, 7.2813262E-003, 3.0723616E-002
 1.4500000E+002, 3.7532266E+002, 7.4172108E-003, 3.0697836E-002
 1.5000000E+002, 3.7596317E+002, 7.7530197E-003, 3.0671215E-002
 1.5500000E+002, 3.7647626E+002, 7.9728570E-003, 3.0643521E-002
 1.6001000E+002, 3.7650375E+002, 8.1990091E-003, 3.0615265E-002
 1.6501000E+002, 3.7771701E+002, 8.5937958E-003, 3.0585706E-002
 1.7001000E+002, 3.7696115E+002, 8.6229946E-003, 3.0555543E-002
 1.7501000E+002, 3.7814618E+002, 9.0412749E-003, 3.0524528E-002
 1.8001000E+002, 3.7838516E+002, 9.2386147E-003, 3.0492360E-002
 1.8501000E+002, 3.7834805E+002, 9.4665727E-003, 3.0459648E-002
 1.9001000E+002, 3.7877646E+002, 9.6778283E-003, 3.0425981E-002
 1.9501000E+002, 3.7844553E+002, 9.8198429E-003, 3.0391894E-002
 2.0001000E+002, 3.7922458E+002, 1.0127901E-002, 3.0356836E-002
 2.0501000E+002, 3.7890112E+002, 1.0213734E-002, 3.0321188E-002
 2.1001000E+002, 3.7957248E+002, 1.0537174E-002, 3.0284744E-002
 2.1501000E+002, 3.7932428E+002, 1.0600160E-002, 3.0247610E-002
 2.2001000E+002, 3.7989761E+002, 1.0895774E-002, 3.0209949E-002
 2.2501000E+002, 3.8014832E+002, 1.1049526E-002, 3.0171318E-002
 2.3001000E+002, 3.7976880E+002, 1.1139301E-002, 3.0132527E-002
 2.3501000E+002, 3.8043839E+002, 1.1354171E-002, 3.0092981E-002
 2.4001000E+002, 3.7980548E+002, 1.1357082E-002, 3.0053247E-002
 2.4501000E+002, 3.8044748E+002, 1.1573541E-002, 3.0012926E-002
 2.5001000E+002, 3.8039349E+002, 1.1632603E-002, 2.9972270E-002
 2.5501000E+002, 3.8043375E+002, 1.1752912E-002, 2.9931193E-002
 2.6001000E+002, 3.8050095E+002, 1.1789137E-002, 2.9889885E-002
 2.6501000E+002, 3.8097336E+002, 1.1985068E-002, 2.9848203E-002
 2.7001000E+002, 3.8086606E+002, 1.1986004E-002, 2.9806072E-002
 2.7501000E+002, 3.8086865E+002, 1.2071948E-002, 2.9763946E-002
 2.8001000E+002, 3.8101260E+002, 1.2096313E-002, 2.9721465E-002
 2.8501000E+002, 3.8086938E+002, 1.2140470E-002, 2.9679023E-002
 2.9001000E+002, 3.8109424E+002, 1.2187515E-002, 2.9636297E-002
 2.9501000E+002, 3.8077377E+002, 1.2148177E-002, 2.9593693E-002
 3.0001000E+002, 3.8125024E+002, 1.2276787E-002, 2.9550742E-002
 3.0501000E+002, 3.7928418E+002, 1.1913793E-002, 2.9508037E-002
 3.1001000E+002, 3.7771588E+002, 1.2041191E-002, 2.9466452E-002
 3.1501000E+002, 3.7871771E+002, 1.2353916E-002, 2.9423550E-002
 3.2001000E+002, 3.7825772E+002, 1.2360274E-002, 2.9380191E-002
 3.2501000E+002, 3.7877014E+002, 1.2472452E-002, 2.9336559E-002
 3.3001000E+002, 3.7875601E+002, 1.2425606E-002, 2.9292842E-002
 3.3501000E+002, 3.7862256E+002, 1.2462132E-002, 2.9249243E-002
 3.4001000E+002, 3.7940433E+002, 1.2529263E-002, 2.9205414E-002
 3.4501000E+002, 3.7859879E+002, 1.2439677E-002, 2.9161595E-002
 3.5001000E+002, 3.7932892E+002, 1.2541126E-002, 2.9117739E-002
 3.5501000E+002, 3.7910303E+002, 1.2464887E-002, 2.9073825E-002
 3.6001000E+002, 3.7933032E+002, 1.2553417E-002, 2.9030014E-002
 3.6501000E+002, 3.7969107E+002, 1.2554726E-002, 2.8985936E-002
 3.7001000E+002, 3.7916541E+002, 1.2503774E-002, 2.8942006E-002
 3.7501000E+002, 3.7984372E+002, 1.2578312E-002, 2.8898010E-002
 3.8001000E+002, 3.7954712E+002, 1.2526978E-002, 2.8853873E-002
 3.8501000E+002, 3.7971198E+002, 1.2572826E-002, 2.8809890E-002
 3.9001000E+002, 3.8010107E+002, 1.2568297E-002, 2.8765788E-002
 3.9501000E+002, 3.7967700E+002, 1.2540808E-002, 2.8721808E-002
 4.0001000E+002, 3.8007590E+002, 1.2588292E-002, 2.8677609E-002
 4.0501000E+002, 3.7994394E+002, 1.2530902E-002, 2.8633580E-002
 4.1001000E+002, 3.8031693E+002, 1.2618094E-002, 2.8589448E-002
 4.1501000E+002, 3.8028925E+002, 1.2557144E-002, 2.8545231E-002
 4.2001000E+002, 3.8035571E+002, 1.2599837E-002, 2.8501216E-002
 4.2501000E+002, 3.8071805E+002, 1.2631637E-002, 2.8456885E-002
 4.3001000E+002, 3.8011462E+002, 1.2516152E-002, 2.8412780E-002
 4.3501000E+002, 3.8041733E+002, 1.2556086E-002, 2.8368780E-002
 4.4001000E+002, 3.8068915E+002, 1.2549574E-002, 2.8324720E-002
 4.4501000E+002, 3.8081696E+002, 1.2622594E-002, 2.8280605E-002
 4.5001000E+002, 3.8101611E+002, 1.2596169E-002, 2.8236277E-002
 4.5501000E+002, 3.7814087E+002, 1.2382868E-002, 2.8192746E-002
 4.6001000E+002, 3.7907983E+002, 1.2648003E-002, 2.8148586E-002
 4.6501000E+002, 3.7885706E+002, 1.2565576E-002, 2.8104302E-002
 4.7001000E+002, 3.7923297E+002, 1.2681712E-002, 2.8060071E-002
 4.7501000E+002, 3.7937454E+002, 1.2629748E-002, 2.8015666E-002
 4.8001000E+002, 3.7936380E+002, 1.2610341E-002, 2.7971428E-002
 4.8501000E+002, 3.7955405E+002, 1.2675243E-002, 2.7926994E-002
 4.9001000E+002, 3.7989563E+002, 1.2644941E-002, 2.7882567E-002
 4.9501000E+002, 3.7927908E+002, 1.2573686E-002, 2.7838411E-002
 5.0001000E+002, 3.8001746E+002, 1.2647548E-002, 2.7794119E-002
 5.0501000E+002, 3.8020932E+002, 1.2636976E-002, 2.7749719E-002
 5.1001000E+002, 3.8003003E+002, 1.2652048E-002, 2.7705396E-002
 5.1501000E+002, 3.8058694E+002, 1.2666302E-002, 2.7660981E-002
 5.2001000E+002, 3.8029440E+002, 1.2609742E-002, 2.7616616E-002
 5.2501000E+002, 3.8073022E+002, 1.2688209E-002, 2.7572235E-002
 5.3001000E+002, 3.8101917E+002, 1.2656218E-002, 2.7527781E-002
 5.3501000E+002, 3.8070993E+002, 1.2647128E-002, 2.7483400E-002
 5.4001000E+002, 3.8082715E+002, 1.2611161E-002, 2.7439056E-002
 5.4501000E+002, 3.8117459E+002, 1.2602249E-002, 2.7394814E-002
 5.5001000E+002, 3.8126816E+002, 1.2663202E-002, 2.7350537E-002
 5.5501000E+002, 3.8137930E+002, 1.2619856E-002, 2.7306139E-002
 5.6001000E+002, 3.8125073E+002, 1.2559121E-002, 2.7261961E-002
 5.6501000E+002, 3.8161823E+002, 1.2620130E-002, 2.7217824E-002
 5.7001000E+002, 3.8220035E+002, 1.2664286E-002, 2.7173473E-002
 5.7501000E+002, 3.8204248E+002, 1.2660649E-002, 2.7129024E-002
 5.8001000E+002, 3.8198669E+002, 1.2612254E-002, 2.7084654E-002
 5.8501000E+002, 3.8245587E+002, 1.2614898E-002, 2.7040401E-002
 5.9001000E+002, 3.8208975E+002, 1.2576576E-002, 2.6996281E-002
 5.9501000E+002, 3.8257748E+002, 1.2595444E-002, 2.6952071E-002
 6.0001000E+002, 3.7918756E+002, 1.2513380E-002, 2.6908170E-002
 6.0501000E+002, 3.7965833E+002, 1.2621013E-002, 2.6863921E-002
 6.1001000E+002, 3.8022165E+002, 1.2638808E-002, 2.6819596E-002
 6.1501000E+002, 3.7999573E+002, 1.2591620E-002, 2.6775345E-002
 6.2001000E+002, 3.8025571E+002, 1.2605966E-002, 2.6731115E-002
 6.2501000E+002, 3.8095541E+002, 1.2628197E-002, 2.6686884E-002
 6.3001000E+002, 3.8108157E+002, 1.2604183E-002, 2.6642568E-002
 6.3501000E+002, 3.8116095E+002, 1.2623403E-002, 2.6598351E-002
 6.4001000E+002, 3.8178064E+002, 1.2643504E-002, 2.6554026E-002
 6.4501000E+002, 3.8182715E+002, 1.2571871E-002, 2.6509739E-002
 6.5001000E+002, 3.8188055E+002, 1.2547195E-002, 2.6465733E-002
 6.5501000E+002, 3.8211548E+002, 1.2546218E-002, 2.6421634E-002
 6.6001000E+002, 3.8255054E+002, 1.2511951E-002, 2.6377713E-002
 6.6501000E+002, 3.8293750E+002, 1.2513060E-002, 2.6333798E-002
 6.7001000E+002, 3.8163004E+002, 1.2419647E-002, 2.6290035E-002
 6.7501000E+002, 3.8101678E+002, 1.2465765E-002, 2.6246440E-002
 6.8001000E+002, 3.8199344E+002, 1.2566330E-002, 2.6202502E-002
 6.8501000E+002, 3.8260733E+002, 1.2555826E-002, 2.6158435E-002
 6.9001000E+002, 3.8307150E+002, 1.2518599E-002, 2.6114434E-002
 6.9501000E+002, 3.8293320E+002, 1.2489774E-002, 2.6070511E-002
 7.0001000E+002, 3.8337790E+002, 1.2397473E-002, 2.6026893E-002
 7.0501000E+002, 3.8450375E+002, 1.2480472E-002, 2.5983255E-002
 7.1001000E+002, 3.8497342E+002, 1.2427250E-002, 2.5939535E-002
 7.1501000E+002, 3.8566302E+002, 1.2407538E-002, 2.5895989E-002
 7.2001000E+002, 3.8574899E+002, 1.2342631E-002, 2.5852541E-002
 7.2501000E+002, 3.8666943E+002, 1.2330552E-002, 2.5809299E-002
 7.3001000E+002, 3.8746359E+002, 1.2309975E-002, 2.5766039E-002
 7.3501000E+002, 3.8817422E+002, 1.2233926E-002, 2.5722960E-002
 7.4001000E+002, 3.8923419E+002, 1.2247221E-002, 2.5680022E-002
 7.4501000E+002, 3.8764465E+002, 1.2077273E-002, 2.5637297E-002
 7.5001000E+002, 3.8768307E+002, 1.1985132E-002, 2.5595151E-002
 7.5501000E+002, 3.8932541E+002, 1.1975752E-002, 2.5553122E-002
 7.6001000E+002, 3.9112805E+002, 1.1966820E-002, 2.5511142E-002
 7.6501000E+002, 3.9259357E+002, 1.1843703E-002, 2.5469240E-002
 7.7001000E+002, 3.9431009E+002, 1.1701436E-002, 2.5428040E-002
 7.7501000E+002, 3.9613800E+002, 1.1557272E-002, 2.5387147E-002
 7.8001000E+002, 3.9830347E+002, 1.1407248E-002, 2.5346885E-002
 7.8501000E+002, 3.9888583E+002, 1.0959699E-002, 2.5307527E-002
 7.9001000E+002, 4.0171973E+002, 1.0777582E-002, 2.5269497E-002
 7.9501000E+002, 4.0510425E+002, 1.0562437E-002, 2.5232019E-002
 8.0001000E+002, 4.0878442E+002, 1.0250220E-002, 2.5195565E-002
