s,C,kg/m2/s,m
Time,"temp","MLR","thick"
 0.0000000E+000, 2.0000000E+001, 0.0000000E+000, 1.8999999E-002
 5.0100000E+000, 5.9063961E+001, 3.6115042E-030, 1.8999999E-002
 1.0010000E+001, 1.1219467E+002, 1.5832472E-024, 1.8999999E-002
 1.5010000E+001, 1.5086049E+002, 7.5792904E-021, 1.8999999E-002
 2.0000000E+001, 1.8257133E+002, 3.7484785E-018, 1.8999999E-002
 2.5000000E+001, 2.0987686E+002, 4.7435248E-016, 1.8999999E-002
 3.0000000E+001, 2.3395528E+002, 2.3635960E-014, 1.8999999E-002
 3.5000000E+001, 2.5542555E+002, 5.9719341E-013, 1.8999999E-002
 4.0000000E+001, 2.7472168E+002, 9.0211831E-012, 1.8999999E-002
 4.5010000E+001, 2.9218497E+002, 9.1566636E-011, 1.8999999E-002
 5.0010000E+001, 3.0805490E+002, 6.7490075E-010, 1.8999999E-002
 5.5010000E+001, 3.2252859E+002, 3.8427319E-009, 1.8999999E-002
 6.0010000E+001, 3.3579843E+002, 1.7734262E-008, 1.8999999E-002
 6.5010000E+001, 3.4801147E+002, 6.8773076E-008, 1.8999999E-002
 7.0010000E+001, 3.5929193E+002, 2.3054456E-007, 1.8999999E-002
 7.5000000E+001, 3.6973541E+002, 6.8247653E-007, 1.8999996E-002
 8.0000000E+001, 3.7944272E+002, 1.8197352E-006, 1.8999990E-002
 8.5000000E+001, 3.8849921E+002, 4.4362946E-006, 1.8999973E-002
 9.0000000E+001, 3.9695889E+002, 9.9977169E-006, 1.8999932E-002
 9.5000000E+001, 4.0487479E+002, 2.1028796E-005, 1.8999845E-002
 1.0000000E+002, 4.1228848E+002, 4.1598025E-005, 1.8999670E-002
 1.0500000E+002, 4.1922958E+002, 7.7841905E-005, 1.8999331E-002
 1.1000000E+002, 4.2571432E+002, 1.3837160E-004, 1.8998716E-002
 1.1500000E+002, 4.3174533E+002, 2.3426814E-004, 1.8997652E-002
 1.2000000E+002, 4.3731165E+002, 3.7822005E-004, 1.8995898E-002
 1.2500000E+002, 4.4239169E+002, 5.8238895E-004, 1.8993136E-002
 1.3000000E+002, 4.4696011E+002, 8.5504417E-004, 1.8988989E-002
 1.3500000E+002, 4.5099744E+002, 1.1969502E-003, 1.8983055E-002
 1.4000000E+002, 4.5450079E+002, 1.5993898E-003, 1.8974951E-002
 1.4500000E+002, 4.5748972E+002, 2.0453264E-003, 1.8964369E-002
 1.5000000E+002, 4.5916870E+002, 2.3755475E-003, 1.8951356E-002
 1.5500000E+002, 4.6120294E+002, 2.8424105E-003, 1.8936403E-002
 1.6001000E+002, 4.6340698E+002, 3.3909066E-003, 1.8918229E-002
 1.6501000E+002, 4.6419498E+002, 3.6573592E-003, 1.8897519E-002
 1.7001000E+002, 4.6574347E+002, 4.1747349E-003, 1.8874981E-002
 1.7501000E+002, 4.6662067E+002, 4.4977930E-003, 1.8849421E-002
 1.8001000E+002, 4.6761295E+002, 4.9231132E-003, 1.8822400E-002
 1.8501000E+002, 4.6824863E+002, 5.2023544E-003, 1.8792599E-002
 1.9001000E+002, 4.6926093E+002, 5.6774849E-003, 1.8761320E-002
 1.9501000E+002, 4.6947235E+002, 5.8279452E-003, 1.8727774E-002
 2.0001000E+002, 4.7037476E+002, 6.2715109E-003, 1.8692335E-002
 2.0501000E+002, 4.7084592E+002, 6.5804250E-003, 1.8655399E-002
 2.1001000E+002, 4.7116605E+002, 6.7856181E-003, 1.8616298E-002
 2.1501000E+002, 4.7179816E+002, 7.1583255E-003, 1.8575529E-002
 2.2001000E+002, 4.7236938E+002, 7.5415960E-003, 1.8533217E-002
 2.2501000E+002, 4.7247717E+002, 7.6710572E-003, 1.8489148E-002
 2.3001000E+002, 4.7291925E+002, 7.9766288E-003, 1.8443257E-002
 2.3501000E+002, 4.7335529E+002, 8.2951309E-003, 1.8395780E-002
 2.4001000E+002, 4.7376215E+002, 8.6120060E-003, 1.8346701E-002
 2.4501000E+002, 4.7412671E+002, 8.9214798E-003, 1.8296005E-002
 2.5001000E+002, 4.7437518E+002, 9.1654733E-003, 1.8243667E-002
 2.5501000E+002, 4.7462735E+002, 9.3994280E-003, 1.8189622E-002
 2.6001000E+002, 4.7494678E+002, 9.6916491E-003, 1.8133946E-002
 2.6501000E+002, 4.7525153E+002, 9.9831540E-003, 1.8076636E-002
 2.7001000E+002, 4.7554321E+002, 1.0274431E-002, 1.8017678E-002
 2.7501000E+002, 4.7582190E+002, 1.0564740E-002, 1.7957063E-002
 2.8001000E+002, 4.7609113E+002, 1.0856057E-002, 1.7894778E-002
 2.8501000E+002, 4.7635239E+002, 1.1149134E-002, 1.7830808E-002
 2.9001000E+002, 4.7660602E+002, 1.1444042E-002, 1.7765146E-002
 2.9501000E+002, 4.7685516E+002, 1.1743234E-002, 1.7697770E-002
 3.0001000E+002, 4.7709897E+002, 1.2045446E-002, 1.7628664E-002
 3.0501000E+002, 4.7733890E+002, 1.2352330E-002, 1.7557815E-002
 3.1001000E+002, 4.7757501E+002, 1.2663648E-002, 1.7485196E-002
 3.1501000E+002, 4.7780795E+002, 1.2979692E-002, 1.7410791E-002
 3.2001000E+002, 4.7795511E+002, 1.3214208E-002, 1.7334601E-002
 3.2501000E+002, 4.7817001E+002, 1.3540280E-002, 1.7256618E-002
 3.3001000E+002, 4.7839963E+002, 1.3881202E-002, 1.7176775E-002
 3.3501000E+002, 4.7862836E+002, 1.4226170E-002, 1.7095055E-002
 3.4001000E+002, 4.7885254E+002, 1.4574891E-002, 1.7011428E-002
 3.4501000E+002, 4.7907126E+002, 1.4926733E-002, 1.6925862E-002
 3.5001000E+002, 4.7832300E+002, 1.4158092E-002, 1.6839623E-002
 3.5501000E+002, 4.7765228E+002, 1.3839235E-002, 1.6760102E-002
 3.6001000E+002, 4.7837061E+002, 1.5049749E-002, 1.6675962E-002
 3.6501000E+002, 4.7884189E+002, 1.5857980E-002, 1.6586071E-002
 3.7001000E+002, 4.7916391E+002, 1.6432891E-002, 1.6492335E-002
 3.7501000E+002, 4.7929117E+002, 1.6769232E-002, 1.6395736E-002
 3.8001000E+002, 4.7953357E+002, 1.7238541E-002, 1.6296636E-002
 3.8501000E+002, 4.7977563E+002, 1.7699571E-002, 1.6195055E-002
 3.9001000E+002, 4.8000125E+002, 1.8147163E-002, 1.6091017E-002
 3.9501000E+002, 4.8011032E+002, 1.8470710E-002, 1.5984571E-002
 4.0001000E+002, 4.8029590E+002, 1.8917775E-002, 1.5875751E-002
 4.0501000E+002, 4.8052594E+002, 1.9410403E-002, 1.5764348E-002
 4.1001000E+002, 4.8070956E+002, 1.9852012E-002, 1.5650330E-002
 4.1501000E+002, 4.8079602E+002, 2.0212192E-002, 1.5533832E-002
 4.2001000E+002, 4.8102451E+002, 2.0749547E-002, 1.5414661E-002
 4.2501000E+002, 4.8122382E+002, 2.1246824E-002, 1.5292726E-002
 4.3001000E+002, 4.8128040E+002, 2.1592816E-002, 1.5168173E-002
 4.3501000E+002, 4.8149844E+002, 2.2148645E-002, 1.5040897E-002
 4.4001000E+002, 4.8167242E+002, 2.2629356E-002, 1.4910818E-002
 4.4501000E+002, 4.8173676E+002, 2.3002349E-002, 1.4778150E-002
 4.5001000E+002, 4.8193872E+002, 2.3528477E-002, 1.4642817E-002
 4.5501000E+002, 4.8206595E+002, 2.3934890E-002, 1.4504860E-002
 4.6001000E+002, 4.8161893E+002, 2.3728382E-002, 1.4365229E-002
 4.6501000E+002, 4.8109836E+002, 2.4161059E-002, 1.4227589E-002
 4.7001000E+002, 4.8151306E+002, 2.5227603E-002, 1.4083673E-002
 4.7501000E+002, 4.8165863E+002, 2.5634788E-002, 1.3935663E-002
 4.8001000E+002, 4.8182126E+002, 2.5952075E-002, 1.3785564E-002
 4.8501000E+002, 4.8200491E+002, 2.6224604E-002, 1.3633867E-002
 4.9001000E+002, 4.8216653E+002, 2.6439793E-002, 1.3480850E-002
 4.9501000E+002, 4.8225436E+002, 2.6569979E-002, 1.3326732E-002
 5.0001000E+002, 4.8228857E+002, 2.6632253E-002, 1.3171693E-002
 5.0501000E+002, 4.8152344E+002, 2.6355544E-002, 1.3018548E-002
 5.1001000E+002, 4.8195142E+002, 2.6970727E-002, 1.2862960E-002
 5.1501000E+002, 4.8217926E+002, 2.7180661E-002, 1.2705480E-002
 5.2001000E+002, 4.8239288E+002, 2.7320236E-002, 1.2547044E-002
 5.2501000E+002, 4.8260159E+002, 2.7416270E-002, 1.2387944E-002
 5.3001000E+002, 4.8281412E+002, 2.7485788E-002, 1.2228363E-002
 5.3501000E+002, 4.8303635E+002, 2.7536523E-002, 1.2068426E-002
 5.4001000E+002, 4.8292850E+002, 2.7429456E-002, 1.1908332E-002
 5.4501000E+002, 4.8253772E+002, 2.7583625E-002, 1.1748841E-002
 5.5001000E+002, 4.8296729E+002, 2.7643597E-002, 1.1588159E-002
 5.5501000E+002, 4.8342282E+002, 2.7586346E-002, 1.1427565E-002
 5.6001000E+002, 4.8363641E+002, 2.7392589E-002, 1.1267516E-002
 5.6501000E+002, 4.8395023E+002, 2.7208187E-002, 1.1108996E-002
 5.7001000E+002, 4.8488840E+002, 2.7005224E-002, 1.0951300E-002
 5.7501000E+002, 4.8607516E+002, 2.6608074E-002, 1.0795351E-002
 5.8001000E+002, 4.8739178E+002, 2.5919808E-002, 1.0642390E-002
 5.8501000E+002, 4.8935245E+002, 2.4869604E-002, 1.0494756E-002
 5.9001000E+002, 4.9285556E+002, 2.3436731E-002, 1.0353809E-002
 5.9501000E+002, 4.9796890E+002, 2.0975951E-002, 1.0224705E-002
 6.0001000E+002, 5.0635699E+002, 1.8044902E-002, 1.0110495E-002
 6.0501000E+002, 5.4678851E+002, 1.0156339E-002, 1.0021422E-002
 6.1001000E+002, 6.3606073E+002, 0.0000000E+000, 9.9999998E-003
 6.1501000E+002, 6.4551959E+002, 0.0000000E+000, 9.9999998E-003
 6.2001000E+002, 6.5023291E+002, 0.0000000E+000, 9.9999998E-003
 6.2501000E+002, 6.5298157E+002, 0.0000000E+000, 9.9999998E-003
 6.3001000E+002, 6.5455939E+002, 0.0000000E+000, 9.9999998E-003
 6.3501000E+002, 6.5544910E+002, 0.0000000E+000, 9.9999998E-003
 6.4001000E+002, 6.5594476E+002, 0.0000000E+000, 9.9999998E-003
 6.4501000E+002, 6.5621912E+002, 0.0000000E+000, 9.9999998E-003
 6.5001000E+002, 6.5637091E+002, 0.0000000E+000, 9.9999998E-003
 6.5501000E+002, 6.5645447E+002, 0.0000000E+000, 9.9999998E-003
 6.6001000E+002, 6.5650092E+002, 0.0000000E+000, 9.9999998E-003
 6.6501000E+002, 6.5652600E+002, 0.0000000E+000, 9.9999998E-003
 6.7001000E+002, 6.5653973E+002, 0.0000000E+000, 9.9999998E-003
 6.7501000E+002, 6.5654730E+002, 0.0000000E+000, 9.9999998E-003
 6.8001000E+002, 6.5655164E+002, 0.0000000E+000, 9.9999998E-003
 6.8501000E+002, 6.5655396E+002, 0.0000000E+000, 9.9999998E-003
 6.9001000E+002, 6.5655536E+002, 0.0000000E+000, 9.9999998E-003
 6.9501000E+002, 6.5655579E+002, 0.0000000E+000, 9.9999998E-003
 7.0001000E+002, 6.5655621E+002, 0.0000000E+000, 9.9999998E-003
 7.0501000E+002, 6.5655658E+002, 0.0000000E+000, 9.9999998E-003
 7.1001000E+002, 6.5655658E+002, 0.0000000E+000, 9.9999998E-003
 7.1501000E+002, 6.5655676E+002, 0.0000000E+000, 9.9999998E-003
 7.2001000E+002, 6.5655664E+002, 0.0000000E+000, 9.9999998E-003
 7.2501000E+002, 6.5655676E+002, 0.0000000E+000, 9.9999998E-003
 7.3001000E+002, 6.5655670E+002, 0.0000000E+000, 9.9999998E-003
 7.3501000E+002, 6.5655682E+002, 0.0000000E+000, 9.9999998E-003
 7.4001000E+002, 6.5655688E+002, 0.0000000E+000, 9.9999998E-003
 7.4501000E+002, 6.5655707E+002, 0.0000000E+000, 9.9999998E-003
 7.5001000E+002, 6.5655768E+002, 0.0000000E+000, 9.9999998E-003
 7.5501000E+002, 6.5655725E+002, 0.0000000E+000, 9.9999998E-003
 7.6001000E+002, 6.5655713E+002, 0.0000000E+000, 9.9999998E-003
 7.6501000E+002, 6.5655688E+002, 0.0000000E+000, 9.9999998E-003
 7.7001000E+002, 6.5655688E+002, 0.0000000E+000, 9.9999998E-003
 7.7501000E+002, 6.5655743E+002, 0.0000000E+000, 9.9999998E-003
 7.8001000E+002, 6.5655713E+002, 0.0000000E+000, 9.9999998E-003
 7.8501000E+002, 6.5655701E+002, 0.0000000E+000, 9.9999998E-003
 7.9001000E+002, 6.5655719E+002, 0.0000000E+000, 9.9999998E-003
 7.9501000E+002, 6.5655743E+002, 0.0000000E+000, 9.9999998E-003
 8.0001000E+002, 6.5655688E+002, 0.0000000E+000, 9.9999998E-003
