s,C,C,C,C,C,C,C,C,C
Time,"Air Temp","IRSN_1","IRSN_2","TRAC_2","TRAC_3","TRAC_4","VTT_1","GRS_2","NRC_1"
 0.0000000E+000, 2.0000000E+001, 2.0000000E+001, 2.0000000E+001, 2.0000000E+001, 2.0000000E+001, 2.0000000E+001, 2.0000000E+001, 2.0000000E+001, 2.0000000E+001
 1.0200000E+001, 2.2365918E+001, 2.0000094E+001, 2.0000097E+001, 2.0000135E+001, 2.0000131E+001, 2.0000137E+001, 2.0000113E+001, 2.0000144E+001, 2.0000222E+001
 2.0200000E+001, 2.6956000E+001, 2.0002798E+001, 2.0002967E+001, 2.0003899E+001, 2.0003733E+001, 2.0003956E+001, 2.0003349E+001, 2.0003725E+001, 2.0005540E+001
 3.0000628E+001, 3.7487530E+001, 2.0015175E+001, 2.0016419E+001, 2.0020773E+001, 2.0019786E+001, 2.0021073E+001, 2.0018131E+001, 2.0018421E+001, 2.0026955E+001
 4.0022624E+001, 5.9608241E+001, 2.0051955E+001, 2.0056851E+001, 2.0070900E+001, 2.0067515E+001, 2.0071897E+001, 2.0062298E+001, 2.0060691E+001, 2.0088953E+001
 5.0055319E+001, 8.2222482E+001, 2.0157727E+001, 2.0174223E+001, 2.0215425E+001, 2.0205340E+001, 2.0218370E+001, 2.0190159E+001, 2.0179115E+001, 2.0263630E+001
 6.0067176E+001, 1.0491828E+002, 2.0388173E+001, 2.0433513E+001, 2.0529003E+001, 2.0504223E+001, 2.0536038E+001, 2.0469971E+001, 2.0424126E+001, 2.0624552E+001
 7.0070035E+001, 1.2749264E+002, 2.0790969E+001, 2.0892556E+001, 2.1074740E+001, 2.1023947E+001, 2.1088704E+001, 2.0960809E+001, 2.0832920E+001, 2.1225056E+001
 8.0003301E+001, 1.5006308E+002, 2.1401222E+001, 2.1595076E+001, 2.1898097E+001, 2.1806993E+001, 2.1922358E+001, 2.1705997E+001, 2.1430599E+001, 2.2098274E+001
 9.0026701E+001, 1.7259537E+002, 2.2258987E+001, 2.2590670E+001, 2.3053049E+001, 2.2904464E+001, 2.3091578E+001, 2.2755982E+001, 2.2250018E+001, 2.3290931E+001
 1.0005696E+002, 1.9528687E+002, 2.3405187E+001, 2.3930362E+001, 2.4593806E+001, 2.4367245E+001, 2.4651215E+001, 2.4161948E+001, 2.3323583E+001, 2.4845330E+001
 1.1005097E+002, 2.1590739E+002, 2.4864753E+001, 2.5645827E+001, 2.6552733E+001, 2.6224922E+001, 2.6634106E+001, 2.5954633E+001, 2.4671598E+001, 2.6784598E+001
 1.2003193E+002, 2.1851189E+002, 2.6655129E+001, 2.7762994E+001, 2.8953819E+001, 2.8499161E+001, 2.9064535E+001, 2.8158003E+001, 2.6300545E+001, 2.9112843E+001
 1.3002797E+002, 2.1687487E+002, 2.8679828E+001, 3.0184897E+001, 3.1664512E+001, 3.1062478E+001, 3.1808000E+001, 3.0659761E+001, 2.8077085E+001, 3.1631640E+001
 1.4002506E+002, 2.1523712E+002, 3.0774622E+001, 3.2731036E+001, 3.4472480E+001, 3.3714504E+001, 3.4649276E+001, 3.3268288E+001, 2.9839332E+001, 3.4116272E+001
 1.5002796E+002, 2.1359640E+002, 3.2851079E+001, 3.5299342E+001, 3.7274806E+001, 3.6362050E+001, 3.7483866E+001, 3.5884956E+001, 3.1529655E+001, 3.6500402E+001
 1.6001423E+002, 2.1195905E+002, 3.4868911E+001, 3.7840868E+001, 4.0027970E+001, 3.8966179E+001, 4.0267675E+001, 3.8465591E+001, 3.3132355E+001, 3.8768964E+001
 1.7002862E+002, 2.1088559E+002, 3.6802669E+001, 4.0323416E+001, 4.2701845E+001, 4.1497290E+001, 4.2970552E+001, 4.0979469E+001, 3.4636353E+001, 4.0905258E+001
 1.8003407E+002, 2.1839111E+002, 3.8649432E+001, 4.2738117E+001, 4.5294471E+001, 4.3953806E+001, 4.5590684E+001, 4.3421370E+001, 3.6054777E+001, 4.2931197E+001
 1.9002913E+002, 2.2879727E+002, 4.0463437E+001, 4.5138484E+001, 4.7879181E+001, 4.6405549E+001, 4.8202584E+001, 4.5853226E+001, 3.7461857E+001, 4.4955533E+001
 2.0006188E+002, 2.3921856E+002, 4.2342853E+001, 4.7631363E+001, 5.0582092E+001, 4.8971743E+001, 5.0934075E+001, 4.8388712E+001, 3.8957115E+001, 4.7117740E+001
 2.1003601E+002, 2.4962575E+002, 4.4354887E+001, 5.0289076E+001, 5.3480208E+001, 5.1726474E+001, 5.3862741E+001, 5.1101459E+001, 4.0594303E+001, 4.9489999E+001
 2.2001245E+002, 2.5999922E+002, 4.6537401E+001, 5.3154418E+001, 5.6614594E+001, 5.4708457E+001, 5.7029943E+001, 5.4032517E+001, 4.2393749E+001, 5.2097781E+001
 2.3002763E+002, 2.7039939E+002, 4.8915934E+001, 5.6259540E+001, 6.0013730E+001, 5.7943290E+001, 6.0464510E+001, 5.7210920E+001, 4.4367525E+001, 5.4951885E+001
 2.4002790E+002, 2.8080815E+002, 5.1506514E+001, 5.9622368E+001, 6.3694720E+001, 6.1448352E+001, 6.4183462E+001, 6.0654176E+001, 4.6526844E+001, 5.8067300E+001
 2.5002428E+002, 2.9121211E+002, 5.4309425E+001, 6.3246394E+001, 6.7658527E+001, 6.5222654E+001, 6.8188009E+001, 6.4363646E+001, 4.8863761E+001, 6.1432124E+001
 2.6002254E+002, 3.0161618E+002, 5.7333785E+001, 6.7143657E+001, 7.1917040E+001, 6.9277888E+001, 7.2490075E+001, 6.8351076E+001, 5.1386610E+001, 6.5057500E+001
 2.7001774E+002, 3.1201543E+002, 6.0592254E+001, 7.1326825E+001, 7.6482418E+001, 7.3628295E+001, 7.7101441E+001, 7.2629771E+001, 5.4107242E+001, 6.8957909E+001
 2.8004815E+002, 3.2243908E+002, 6.4099216E+001, 7.5816324E+001, 8.1376706E+001, 7.8294336E+001, 8.2044446E+001, 7.7220270E+001, 5.7036090E+001, 7.3147276E+001
 2.9003001E+002, 3.3284525E+002, 6.7850452E+001, 8.0608858E+001, 8.6594962E+001, 8.3270736E+001, 8.7314137E+001, 8.2118311E+001, 6.0167273E+001, 7.7615887E+001
 3.0002967E+002, 3.4323725E+002, 7.1856775E+001, 8.5711159E+001, 9.2142597E+001, 8.8567273E+001, 9.2915144E+001, 8.7331847E+001, 6.3516613E+001, 8.2382417E+001
 3.1002847E+002, 3.5363849E+002, 7.6131683E+001, 9.1141223E+001, 9.8037638E+001, 9.4200675E+001, 9.8865686E+001, 9.2878430E+001, 6.7089203E+001, 8.7453318E+001
 3.2003880E+002, 3.6404466E+002, 8.0681209E+001, 9.6908213E+001, 1.0429041E+002, 1.0018084E+002, 1.0517618E+002, 9.8767571E+001, 7.0891908E+001, 9.2838292E+001
 3.3003359E+002, 3.7445851E+002, 8.5508814E+001, 1.0301257E+002, 1.1089878E+002, 1.0650808E+002, 1.1184399E+002, 1.0499955E+002, 7.4930075E+001, 9.8538544E+001
 3.4002636E+002, 3.8485229E+002, 9.0616333E+001, 1.0945983E+002, 1.1786960E+002, 1.1318808E+002, 1.1887619E+002, 1.1158005E+002, 7.9202370E+001, 1.0455522E+002
 3.5000063E+002, 3.9029591E+002, 9.6005378E+001, 1.1625123E+002, 1.2520153E+002, 1.2022090E+002, 1.2627109E+002, 1.1850971E+002, 8.3711037E+001, 1.1088622E+002
 3.6001367E+002, 3.9088403E+002, 1.0162212E+002, 1.2332584E+002, 1.3280862E+002, 1.2752823E+002, 1.3394069E+002, 1.2571869E+002, 8.8381683E+001, 1.1741382E+002
 3.7000644E+002, 3.9147277E+002, 1.0729999E+002, 1.3051027E+002, 1.4048680E+002, 1.3491299E+002, 1.4167887E+002, 1.3302116E+002, 9.3026244E+001, 1.2389135E+002
 3.8004165E+002, 3.9206167E+002, 1.1291419E+002, 1.3766008E+002, 1.4807820E+002, 1.4222725E+002, 1.4932582E+002, 1.4027000E+002, 9.7551420E+001, 1.3018974E+002
 3.9002182E+002, 3.9264988E+002, 1.1839347E+002, 1.4467720E+002, 1.5548406E+002, 1.4938125E+002, 1.5678137E+002, 1.4737065E+002, 1.0192389E+002, 1.3626215E+002
 4.0002523E+002, 3.9323794E+002, 1.2371442E+002, 1.5152398E+002, 1.6267527E+002, 1.5634841E+002, 1.6401629E+002, 1.5429089E+002, 1.0614516E+002, 1.4211702E+002
 4.1000826E+002, 3.9382589E+002, 1.2888856E+002, 1.5821999E+002, 1.6968716E+002, 1.6315773E+002, 1.7106746E+002, 1.6105549E+002, 1.1022453E+002, 1.4779245E+002
 4.2000658E+002, 3.9441369E+002, 1.3391970E+002, 1.6476236E+002, 1.7651758E+002, 1.6980636E+002, 1.7793285E+002, 1.6766188E+002, 1.1417545E+002, 1.5330048E+002
 4.3000244E+002, 3.9500149E+002, 1.3881779E+002, 1.7114617E+002, 1.8315866E+002, 1.7628904E+002, 1.8460410E+002, 1.7410496E+002, 1.1801724E+002, 1.5865401E+002
 4.4001402E+002, 3.9559005E+002, 1.4358978E+002, 1.7736901E+002, 1.8960864E+002, 1.8260402E+002, 1.9107952E+002, 1.8038270E+002, 1.2175934E+002, 1.6386332E+002
 4.5000638E+002, 3.9617846E+002, 1.4824069E+002, 1.8343428E+002, 1.9587598E+002, 1.8875667E+002, 1.9736823E+002, 1.8649964E+002, 1.2540288E+002, 1.6893978E+002
 4.6001678E+002, 3.9676663E+002, 1.5277848E+002, 1.8934970E+002, 2.0197008E+002, 1.9475368E+002, 2.0348015E+002, 1.9246317E+002, 1.2895275E+002, 1.7389230E+002
 4.7003390E+002, 3.9735574E+002, 1.5721836E+002, 1.9513274E+002, 2.0791270E+002, 2.0061433E+002, 2.0943756E+002, 1.9829172E+002, 1.3241804E+002, 1.7874191E+002
 4.8002656E+002, 3.9794438E+002, 1.6155678E+002, 2.0077943E+002, 2.1370077E+002, 2.0633278E+002, 2.1523787E+002, 2.0398059E+002, 1.3579337E+002, 1.8348313E+002
 4.9003148E+002, 3.9853232E+002, 1.6580369E+002, 2.0628510E+002, 2.1932413E+002, 2.1190254E+002, 2.2087020E+002, 2.0952399E+002, 1.3909875E+002, 1.8812467E+002
 5.0004198E+002, 3.9912143E+002, 1.6998365E+002, 2.1168515E+002, 2.2482973E+002, 2.1736649E+002, 2.2638251E+002, 2.1496109E+002, 1.4234562E+002, 1.9270568E+002
 5.1004772E+002, 3.9970949E+002, 1.7408534E+002, 2.1696177E+002, 2.3018972E+002, 2.2269631E+002, 2.3174674E+002, 2.2026913E+002, 1.4552266E+002, 1.9718962E+002
 5.2000671E+002, 3.9915852E+002, 1.7809282E+002, 2.2208139E+002, 2.3536623E+002, 2.2785687E+002, 2.3692447E+002, 2.2541341E+002, 1.4862665E+002, 2.0155844E+002
 5.3001723E+002, 3.9749420E+002, 1.8200137E+002, 2.2703961E+002, 2.4035157E+002, 2.3284000E+002, 2.4190800E+002, 2.3038770E+002, 1.5164349E+002, 2.0579185E+002
 5.4000322E+002, 3.9582790E+002, 1.8578342E+002, 2.3181521E+002, 2.4512598E+002, 2.3762472E+002, 2.4667789E+002, 2.3517070E+002, 1.5453541E+002, 2.0985784E+002
 5.5002871E+002, 3.9415990E+002, 1.8942160E+002, 2.3638994E+002, 2.4967188E+002, 2.4219374E+002, 2.5121647E+002, 2.3974467E+002, 1.5729035E+002, 2.1374248E+002
 5.6002007E+002, 3.9249232E+002, 1.9291443E+002, 2.4076263E+002, 2.5399415E+002, 2.4655104E+002, 2.5552899E+002, 2.4411095E+002, 1.5991088E+002, 2.1745819E+002
 5.7004414E+002, 3.9082361E+002, 1.9625556E+002, 2.4491979E+002, 2.5807389E+002, 2.5067758E+002, 2.5959639E+002, 2.4825349E+002, 1.6239727E+002, 2.2098674E+002
 5.8001067E+002, 3.8915842E+002, 1.9943780E+002, 2.4884178E+002, 2.6189130E+002, 2.5455460E+002, 2.6339876E+002, 2.5215285E+002, 1.6475378E+002, 2.2432592E+002
 5.9000378E+002, 3.8749514E+002, 2.0247770E+002, 2.5255295E+002, 2.6547939E+002, 2.5821230E+002, 2.6696981E+002, 2.5583653E+002, 1.6699219E+002, 2.2750357E+002
 6.0003300E+002, 3.8582643E+002, 2.0539583E+002, 2.5607872E+002, 2.6886707E+002, 2.6167853E+002, 2.7033872E+002, 2.5933113E+002, 1.6912705E+002, 2.3054731E+002
 6.1000062E+002, 3.8415987E+002, 2.0819363E+002, 2.5942288E+002, 2.7206148E+002, 2.6495808E+002, 2.7351310E+002, 2.6264114E+002, 1.7116109E+002, 2.3346054E+002
 6.2003720E+002, 3.8249276E+002, 2.1088082E+002, 2.6259350E+002, 2.7506839E+002, 2.6805647E+002, 2.7649870E+002, 2.6577343E+002, 1.7310276E+002, 2.3624681E+002
 6.3001134E+002, 3.8082635E+002, 2.1346575E+002, 2.6560581E+002, 2.7790899E+002, 2.7099356E+002, 2.7931711E+002, 2.6874547E+002, 1.7495491E+002, 2.3892256E+002
 6.4000060E+002, 3.7916150E+002, 2.1593303E+002, 2.6843579E+002, 2.8054992E+002, 2.7373579E+002, 2.8193467E+002, 2.7152876E+002, 1.7670911E+002, 2.4145036E+002
 6.5004264E+002, 3.7749332E+002, 2.1830536E+002, 2.7111315E+002, 2.8302983E+002, 2.7632139E+002, 2.8439041E+002, 2.7415691E+002, 1.7838252E+002, 2.4387455E+002
 6.6000243E+002, 3.7582633E+002, 2.2058309E+002, 2.7364086E+002, 2.8535259E+002, 2.7875258E+002, 2.8668848E+002, 2.7663284E+002, 1.7997758E+002, 2.4619115E+002
 6.7003598E+002, 3.7415929E+002, 2.2277179E+002, 2.7602259E+002, 2.8752255E+002, 2.8103431E+002, 2.8883313E+002, 2.7896066E+002, 1.8150125E+002, 2.4840957E+002
 6.8000859E+002, 3.7249270E+002, 2.2488513E+002, 2.7827761E+002, 2.8956011E+002, 2.8318608E+002, 2.9084492E+002, 2.8115997E+002, 1.8296245E+002, 2.5054065E+002
 6.9003533E+002, 3.7082527E+002, 2.2690916E+002, 2.8038684E+002, 2.9144061E+002, 2.8518290E+002, 2.9269910E+002, 2.8320877E+002, 1.8435022E+002, 2.5255626E+002
 7.0003277E+002, 3.6915676E+002, 2.2884134E+002, 2.8234676E+002, 2.9316052E+002, 2.8702148E+002, 2.9439201E+002, 2.8510357E+002, 1.8566454E+002, 2.5445494E+002
 7.1003774E+002, 3.6749076E+002, 2.3068218E+002, 2.8415357E+002, 2.9471618E+002, 2.8869839E+002, 2.9592010E+002, 2.8684070E+002, 1.8691400E+002, 2.5623822E+002
 7.2001060E+002, 3.6582493E+002, 2.3243704E+002, 2.8582395E+002, 2.9613360E+002, 2.9023817E+002, 2.9730992E+002, 2.8844057E+002, 1.8809483E+002, 2.5792628E+002
 7.3001323E+002, 3.6416040E+002, 2.3411695E+002, 2.8737785E+002, 2.9743286E+002, 2.9165912E+002, 2.9858176E+002, 2.8992275E+002, 1.8921331E+002, 2.5952607E+002
 7.4001123E+002, 3.6249329E+002, 2.3571383E+002, 2.8879579E+002, 2.9858702E+002, 2.9293602E+002, 2.9970821E+002, 2.9126474E+002, 1.9027033E+002, 2.6101899E+002
 7.5004017E+002, 3.6082469E+002, 2.3725405E+002, 2.9011992E+002, 2.9965360E+002, 2.9412529E+002, 3.0074737E+002, 2.9251569E+002, 1.9128482E+002, 2.6246311E+002
 7.6001480E+002, 3.5789614E+002, 2.3873052E+002, 2.9134191E+002, 3.0061603E+002, 2.9520945E+002, 3.0168253E+002, 2.9366305E+002, 1.9224936E+002, 2.6382731E+002
 7.7003375E+002, 3.5372879E+002, 2.4013714E+002, 2.9246122E+002, 3.0147490E+002, 2.9618974E+002, 3.0251426E+002, 2.9470696E+002, 1.9315032E+002, 2.6510533E+002
 7.8000508E+002, 3.4956322E+002, 2.4142612E+002, 2.9342109E+002, 3.0215595E+002, 2.9699359E+002, 3.0316744E+002, 2.9558292E+002, 1.9394037E+002, 2.6620749E+002
 7.9000443E+002, 3.4540665E+002, 2.4257920E+002, 2.9420277E+002, 3.0264749E+002, 2.9761078E+002, 3.0363038E+002, 2.9627591E+002, 1.9461122E+002, 2.6714009E+002
 8.0004036E+002, 3.4123044E+002, 2.4362008E+002, 2.9484361E+002, 3.0299972E+002, 2.9809145E+002, 3.0395373E+002, 2.9682960E+002, 1.9517966E+002, 2.6795627E+002
 8.1000189E+002, 3.3706367E+002, 2.4453616E+002, 2.9533107E+002, 3.0319286E+002, 2.9841490E+002, 3.0411757E+002, 2.9722793E+002, 1.9563711E+002, 2.6862091E+002
 8.2001743E+002, 3.3290170E+002, 2.4531056E+002, 2.9563544E+002, 3.0319082E+002, 2.9854475E+002, 3.0408567E+002, 2.9743778E+002, 1.9597882E+002, 2.6910925E+002
 8.3000159E+002, 3.2873567E+002, 2.4595795E+002, 2.9576809E+002, 3.0300962E+002, 2.9849705E+002, 3.0387426E+002, 2.9747272E+002, 1.9622541E+002, 2.6945041E+002
 8.4002063E+002, 3.2456565E+002, 2.4649469E+002, 2.9575210E+002, 3.0268141E+002, 2.9830385E+002, 3.0351575E+002, 2.9736012E+002, 1.9638999E+002, 2.6968089E+002
 8.5003341E+002, 3.2038987E+002, 2.4694800E+002, 2.9563014E+002, 3.0225548E+002, 2.9801322E+002, 3.0305977E+002, 2.9714568E+002, 1.9648588E+002, 2.6983568E+002
 8.6002771E+002, 3.1622691E+002, 2.4731083E+002, 2.9538945E+002, 3.0171113E+002, 2.9760385E+002, 3.0248547E+002, 2.9681254E+002, 1.9651206E+002, 2.6989041E+002
 8.7004568E+002, 3.1206269E+002, 2.4758228E+002, 2.9502737E+002, 3.0104470E+002, 2.9707180E+002, 3.0178922E+002, 2.9635733E+002, 1.9646652E+002, 2.6984225E+002
 8.8000167E+002, 3.3187417E+002, 2.4778267E+002, 2.9457309E+002, 3.0029380E+002, 2.9645345E+002, 3.0100906E+002, 2.9581285E+002, 1.9637135E+002, 2.6973183E+002
 8.9004109E+002, 3.7522294E+002, 2.4816080E+002, 2.9428065E+002, 2.9978742E+002, 2.9606739E+002, 3.0047805E+002, 2.9546512E+002, 1.9656347E+002, 2.7003608E+002
 9.0004490E+002, 4.1861663E+002, 2.4937511E+002, 2.9485006E+002, 3.0035912E+002, 2.9671485E+002, 3.0103902E+002, 2.9606730E+002, 1.9777679E+002, 2.7173151E+002
 9.1003556E+002, 4.6193781E+002, 2.5197572E+002, 2.9688186E+002, 3.0265621E+002, 2.9901470E+002, 3.0334500E+002, 2.9823234E+002, 2.0050863E+002, 2.7541181E+002
 9.2003717E+002, 5.0522883E+002, 2.5637329E+002, 3.0083344E+002, 3.0715121E+002, 3.0342502E+002, 3.0787105E+002, 3.0241926E+002, 2.0509579E+002, 2.8147272E+002
 9.3001356E+002, 5.4850258E+002, 2.6287163E+002, 3.0703615E+002, 3.1416532E+002, 3.1026378E+002, 3.1493827E+002, 3.0895333E+002, 2.1179936E+002, 2.9015804E+002
 9.4001817E+002, 5.9181603E+002, 2.7173043E+002, 3.1577476E+002, 3.2398349E+002, 3.1982135E+002, 3.2483050E+002, 3.1812144E+002, 2.2085713E+002, 3.0171121E+002
 9.5000709E+002, 6.3511996E+002, 2.8317560E+002, 3.2729108E+002, 3.3683779E+002, 3.3234538E+002, 3.3777667E+002, 3.3016760E+002, 2.3250100E+002, 3.1632573E+002
 9.6001860E+002, 6.7844860E+002, 2.9736594E+002, 3.4173077E+002, 3.5284815E+002, 3.4798478E+002, 3.5389095E+002, 3.4523754E+002, 2.4693468E+002, 3.3410662E+002
 9.7002093E+002, 6.7950138E+002, 3.1434435E+002, 3.5913211E+002, 3.7200431E+002, 3.6676448E+002, 3.7315574E+002, 3.6336153E+002, 2.6419597E+002, 3.5495481E+002
 9.8001716E+002, 6.3878770E+002, 3.3241933E+002, 3.7777487E+002, 3.9206140E+002, 3.8650608E+002, 3.9329951E+002, 3.8259175E+002, 2.8199006E+002, 3.7559846E+002
 9.9000541E+002, 5.9808865E+002, 3.4825080E+002, 3.9424208E+002, 4.0905822E+002, 4.0332484E+002, 4.1033446E+002, 3.9926557E+002, 2.9655004E+002, 3.9142641E+002
 1.0000014E+003, 5.5742535E+002, 3.6026421E+002, 4.0691538E+002, 4.2150510E+002, 4.1574345E+002, 4.2277481E+002, 4.1182441E+002, 3.0672309E+002, 4.0155466E+002
 1.0100217E+003, 5.1666866E+002, 3.6833066E+002, 4.1563782E+002, 4.2952399E+002, 4.2386053E+002, 4.3075505E+002, 4.2023900E+002, 3.1284225E+002, 4.0676770E+002
 1.0200117E+003, 4.7592756E+002, 3.7288404E+002, 4.2081823E+002, 4.3374619E+002, 4.2827760E+002, 4.3491745E+002, 4.2501921E+002, 3.1561327E+002, 4.0813757E+002
 1.0300329E+003, 4.3519906E+002, 3.7450628E+002, 4.2299817E+002, 4.3484010E+002, 4.2963766E+002, 4.3593760E+002, 4.2676263E+002, 3.1574462E+002, 4.0658153E+002
 1.0400415E+003, 4.1051464E+002, 3.7380559E+002, 4.2274699E+002, 4.3345990E+002, 4.2857586E+002, 4.3447470E+002, 4.2607525E+002, 3.1388961E+002, 4.0291496E+002
 1.0500430E+003, 4.0164660E+002, 3.7153800E+002, 4.2079551E+002, 4.3044968E+002, 4.2591217E+002, 4.3137985E+002, 4.2373511E+002, 3.1086730E+002, 3.9818148E+002
 1.0600275E+003, 3.9279045E+002, 3.6858798E+002, 4.1803118E+002, 4.2679312E+002, 4.2259959E+002, 4.2764417E+002, 4.2066619E+002, 3.0755396E+002, 3.9344548E+002
 1.0700203E+003, 3.8393766E+002, 3.6544185E+002, 4.1493198E+002, 4.2293590E+002, 4.1906592E+002, 4.2371495E+002, 4.1732438E+002, 3.0430895E+002, 3.8901628E+002
 1.0800119E+003, 3.7507714E+002, 3.6230780E+002, 4.1170280E+002, 4.1904022E+002, 4.1547005E+002, 4.1975360E+002, 4.1389125E+002, 3.0122262E+002, 3.8493924E+002
 1.0900279E+003, 3.6621222E+002, 3.5924719E+002, 4.0840016E+002, 4.1511776E+002, 4.1182463E+002, 4.1577031E+002, 4.1040070E+002, 2.9827788E+002, 3.8112384E+002
 1.1000413E+003, 3.5733290E+002, 3.5625231E+002, 4.0501148E+002, 4.1112763E+002, 4.0809163E+002, 4.1172291E+002, 4.0682623E+002, 2.9542760E+002, 3.7747003E+002
 1.1100355E+003, 3.4846924E+002, 3.5334012E+002, 4.0156710E+002, 4.0710391E+002, 4.0430944E+002, 4.0764503E+002, 4.0320061E+002, 2.9266665E+002, 3.7398923E+002
 1.1200472E+003, 3.3960144E+002, 3.5053664E+002, 3.9811628E+002, 4.0309887E+002, 4.0053318E+002, 4.0358852E+002, 3.9957573E+002, 2.8999635E+002, 3.7069118E+002
 1.1300226E+003, 3.3074619E+002, 3.4777125E+002, 3.9457674E+002, 3.9899654E+002, 3.9664666E+002, 3.9943641E+002, 3.9585259E+002, 2.8734922E+002, 3.6740537E+002
 1.1400494E+003, 3.2187553E+002, 3.4503525E+002, 3.9095446E+002, 3.9482120E+002, 3.9267947E+002, 3.9521283E+002, 3.9204741E+002, 2.8472055E+002, 3.6417034E+002
 1.1500251E+003, 3.1301483E+002, 3.4232024E+002, 3.8724917E+002, 3.9056409E+002, 3.8862199E+002, 3.9090889E+002, 3.8815591E+002, 2.8210336E+002, 3.6093634E+002
 1.1600213E+003, 3.0416361E+002, 3.3962017E+002, 3.8346067E+002, 3.8623287E+002, 3.8448353E+002, 3.8653237E+002, 3.8418175E+002, 2.7950254E+002, 3.5771896E+002
 1.1700336E+003, 2.9529527E+002, 3.3695206E+002, 3.7962595E+002, 3.8187274E+002, 3.8031124E+002, 3.8212830E+002, 3.8016723E+002, 2.7692689E+002, 3.5454396E+002
 1.1800006E+003, 2.8643390E+002, 3.3429283E+002, 3.7572868E+002, 3.7745619E+002, 3.7607570E+002, 3.7766908E+002, 3.7608991E+002, 2.7435122E+002, 3.5135249E+002
 1.1900126E+003, 2.7757955E+002, 3.3162204E+002, 3.7175357E+002, 3.7296886E+002, 3.7176451E+002, 3.7314006E+002, 3.7193564E+002, 2.7176579E+002, 3.4812934E+002
 1.2000130E+003, 2.6871458E+002, 3.2895041E+002, 3.6771874E+002, 3.6843536E+002, 3.6740328E+002, 3.6856592E+002, 3.6772619E+002, 2.6918690E+002, 3.4489988E+002
 1.2100337E+003, 2.5983576E+002, 3.2626630E+002, 3.6362043E+002, 3.6384671E+002, 3.6298250E+002, 3.6393762E+002, 3.6345522E+002, 2.6660081E+002, 3.4163549E+002
 1.2200167E+003, 2.5097338E+002, 3.2355070E+002, 3.5943864E+002, 3.5917687E+002, 3.5847535E+002, 3.5922899E+002, 3.5909943E+002, 2.6400028E+002, 3.3830150E+002
 1.2300421E+003, 2.4211075E+002, 3.2079507E+002, 3.5516953E+002, 3.5442549E+002, 3.5388295E+002, 3.5443962E+002, 3.5465717E+002, 2.6138053E+002, 3.3490150E+002
