s,C,C,C,C,C,C,C
Time,"Air Temp","VTT_1","IRSN_1","TRAC_2","TRAC_4","GRS_2","NRC_2"
 0.0000000E+000, 2.5000000E+001, 2.5000000E+001, 2.5000000E+001, 2.5000000E+001, 2.5000000E+001, 2.5000000E+001, 2.5000000E+001
 1.0200000E+001, 2.5421647E+001, 2.5000022E+001, 2.5000018E+001, 2.5000026E+001, 2.5000026E+001, 2.5000027E+001, 2.5000210E+001
 2.0200000E+001, 2.6216000E+001, 2.5000620E+001, 2.5000518E+001, 2.5000721E+001, 2.5000732E+001, 2.5000688E+001, 2.5003204E+001
 3.0200000E+001, 2.9182381E+001, 2.5003259E+001, 2.5002735E+001, 2.5003731E+001, 2.5003785E+001, 2.5003305E+001, 2.5011589E+001
 4.0139248E+001, 4.4169734E+001, 2.5012176E+001, 2.5010206E+001, 2.5013924E+001, 2.5014126E+001, 2.5012306E+001, 2.5047552E+001
 5.0121285E+001, 6.0987136E+001, 2.5055338E+001, 2.5046044E+001, 2.5063276E+001, 2.5064163E+001, 2.5055289E+001, 2.5207230E+001
 6.0059557E+001, 7.7743289E+001, 2.5179991E+001, 2.5149137E+001, 2.5204047E+001, 2.5206821E+001, 2.5170035E+001, 2.5551665E+001
 7.0094779E+001, 9.4520848E+001, 2.5429127E+001, 2.5354378E+001, 2.5482517E+001, 2.5488906E+001, 2.5384788E+001, 2.6117909E+001
 8.0018034E+001, 1.1129621E+002, 2.5836653E+001, 2.5688548E+001, 2.5934428E+001, 2.5946521E+001, 2.5718210E+001, 2.6917683E+001
 9.0071202E+001, 1.2809698E+002, 2.6431143E+001, 2.6173997E+001, 2.6589688E+001, 2.6609868E+001, 2.6185922E+001, 2.7970550E+001
 1.0001580E+002, 1.4490561E+002, 2.7235676E+001, 2.6828626E+001, 2.7472358E+001, 2.7503271E+001, 2.6800460E+001, 2.9281961E+001
 1.1002372E+002, 1.6169695E+002, 2.8269604E+001, 2.7667064E+001, 2.8602875E+001, 2.8647422E+001, 2.7572838E+001, 3.0877129E+001
 1.2002108E+002, 1.7309416E+002, 2.9568197E+001, 2.8716128E+001, 3.0018948E+001, 3.0080317E+001, 2.8526130E+001, 3.2790229E+001
 1.3004013E+002, 1.7920678E+002, 3.1111941E+001, 2.9959045E+001, 3.1695756E+001, 3.1776904E+001, 2.9630157E+001, 3.4823328E+001
 1.4007362E+002, 1.8533399E+002, 3.2837088E+001, 3.1341073E+001, 3.3561435E+001, 3.3664406E+001, 3.0824935E+001, 3.6896972E+001
 1.5004415E+002, 1.9145188E+002, 3.4690080E+001, 3.2815526E+001, 3.5557964E+001, 3.5683963E+001, 3.2072113E+001, 3.8976981E+001
 1.6005112E+002, 1.9755166E+002, 3.6649047E+001, 3.4362215E+001, 3.7663292E+001, 3.7813230E+001, 3.3361677E+001, 4.1098360E+001
 1.7001195E+002, 2.0365181E+002, 3.8703687E+001, 3.5971006E+001, 3.9867827E+001, 4.0042660E+001, 3.4689903E+001, 4.3259477E+001
 1.8002741E+002, 2.0975521E+002, 4.0860691E+001, 3.7646288E+001, 4.2179844E+001, 4.2380495E+001, 3.6066318E+001, 4.5511816E+001
 1.9004431E+002, 2.1587211E+002, 4.3132345E+001, 3.9397210E+001, 4.4612802E+001, 4.4840287E+001, 3.7499347E+001, 4.7860774E+001
 2.0005429E+002, 2.2199407E+002, 4.5509734E+001, 4.1217719E+001, 4.7156724E+001, 4.7411971E+001, 3.8983974E+001, 5.0277293E+001
 2.1002424E+002, 2.3103357E+002, 4.7989252E+001, 4.3105859E+001, 4.9808138E+001, 5.0092039E+001, 4.0521423E+001, 5.2800369E+001
 2.2001011E+002, 2.4294807E+002, 5.0609259E+001, 4.5094774E+001, 5.2609496E+001, 5.2923136E+001, 4.2151973E+001, 5.5564161E+001
 2.3003691E+002, 2.5487545E+002, 5.3439328E+001, 4.7242133E+001, 5.5637974E+001, 5.5983626E+001, 4.3931081E+001, 5.8641795E+001
 2.4001006E+002, 2.6679749E+002, 5.6514917E+001, 4.9579719E+001, 5.8931317E+001, 5.9311840E+001, 4.5883679E+001, 6.2023016E+001
 2.5000876E+002, 2.7869450E+002, 5.9856843E+001, 5.2127106E+001, 6.2510367E+001, 6.2928814E+001, 4.8022208E+001, 6.5726954E+001
 2.6000119E+002, 2.9061326E+002, 6.3512629E+001, 5.4923686E+001, 6.6424873E+001, 6.6884368E+001, 5.0382587E+001, 6.9846185E+001
 2.7001494E+002, 3.0253695E+002, 6.7504098E+001, 5.7989143E+001, 7.0694922E+001, 7.1198434E+001, 5.2974027E+001, 7.4298876E+001
 2.8003486E+002, 3.1448326E+002, 7.1836513E+001, 6.1325514E+001, 7.5326379E+001, 7.5877318E+001, 5.5791301E+001, 7.9101829E+001
 2.9002995E+002, 3.2641524E+002, 7.6519335E+001, 6.4937679E+001, 8.0330280E+001, 8.0932326E+001, 5.8838340E+001, 8.4267036E+001
 3.0000216E+002, 3.3832641E+002, 8.1560068E+001, 6.8833376E+001, 8.5712682E+001, 8.6369163E+001, 6.2125572E+001, 8.9822320E+001
 3.1001640E+002, 3.5023403E+002, 8.6994806E+001, 7.3044514E+001, 9.1509297E+001, 9.2223166E+001, 6.5683812E+001, 9.5802895E+001
 3.2000218E+002, 3.6215381E+002, 9.2831434E+001, 7.7576787E+001, 9.7727615E+001, 9.8501930E+001, 6.9512558E+001, 1.0216550E+002
 3.3002339E+002, 3.7408451E+002, 9.9069606E+001, 8.2429424E+001, 1.0436671E+002, 1.0520456E+002, 7.3608800E+001, 1.0893049E+002
 3.4001475E+002, 3.8261271E+002, 1.0572880E+002, 8.7621851E+001, 1.1144432E+002, 1.1234800E+002, 7.7998039E+001, 1.1614385E+002
 3.5001427E+002, 3.8778904E+002, 1.1275639E+002, 9.3111125E+001, 1.1889742E+002, 1.1986804E+002, 8.2618518E+001, 1.2350218E+002
 3.6002882E+002, 3.9296781E+002, 1.2003215E+002, 9.8791140E+001, 1.2659153E+002, 1.2762873E+002, 8.7349020E+001, 1.3077752E+002
 3.7002377E+002, 3.9815030E+002, 1.2745438E+002, 1.0457639E+002, 1.3441741E+002, 1.3551915E+002, 9.2129093E+001, 1.3801753E+002
 3.8003406E+002, 4.0333052E+002, 1.3496609E+002, 1.1042533E+002, 1.4231320E+002, 1.4347617E+002, 9.6940152E+001, 1.4520938E+002
 3.9001425E+002, 4.0850642E+002, 1.4255007E+002, 1.1632229E+002, 1.5026533E+002, 1.5148629E+002, 1.0178084E+002, 1.5244096E+002
 4.0000112E+002, 4.1367745E+002, 1.5021313E+002, 1.2226765E+002, 1.5828610E+002, 1.5956260E+002, 1.0665126E+002, 1.5971440E+002
 4.1004540E+002, 4.1886456E+002, 1.5799338E+002, 1.2828810E+002, 1.6641801E+002, 1.6774843E+002, 1.1157316E+002, 1.6705208E+002
 4.2002145E+002, 4.2404706E+002, 1.6583358E+002, 1.3435345E+002, 1.7459464E+002, 1.7597592E+002, 1.1653250E+002, 1.7439792E+002
 4.3002672E+002, 4.2922134E+002, 1.7370275E+002, 1.4045083E+002, 1.8278086E+002, 1.8420914E+002, 1.2152807E+002, 1.8176449E+002
 4.4000953E+002, 4.3439585E+002, 1.8161004E+002, 1.4659534E+002, 1.9098535E+002, 1.9245659E+002, 1.2657689E+002, 1.8916952E+002
 4.5003497E+002, 4.3957688E+002, 1.8958184E+002, 1.5280014E+002, 1.9924276E+002, 2.0075421E+002, 1.3168065E+002, 1.9666717E+002
 4.6002874E+002, 4.4475956E+002, 1.9760391E+002, 1.5905889E+002, 2.0753561E+002, 2.0908437E+002, 1.3683414E+002, 2.0417728E+002
 4.7002489E+002, 4.4993534E+002, 2.0564952E+002, 1.6536267E+002, 2.1583349E+002, 2.1741581E+002, 1.4204294E+002, 2.1177639E+002
 4.8002788E+002, 4.5511347E+002, 2.1375654E+002, 1.7173667E+002, 2.2418011E+002, 2.2579307E+002, 1.4731876E+002, 2.1945397E+002
 4.9002250E+002, 4.6029082E+002, 2.2189269E+002, 1.7816371E+002, 2.3253735E+002, 2.3417764E+002, 1.5264816E+002, 2.2711651E+002
 5.0002196E+002, 4.6546820E+002, 2.3003912E+002, 1.8463670E+002, 2.4088494E+002, 2.4254891E+002, 1.5803263E+002, 2.3483031E+002
 5.1000862E+002, 4.7064340E+002, 2.3819185E+002, 1.9115566E+002, 2.4921880E+002, 2.5090286E+002, 1.6347323E+002, 2.4254263E+002
 5.2000505E+002, 4.7581778E+002, 2.4633326E+002, 1.9771271E+002, 2.5751976E+002, 2.5922016E+002, 1.6896615E+002, 2.5028282E+002
 5.3003799E+002, 4.8100242E+002, 2.5452294E+002, 2.0434520E+002, 2.6585743E+002, 2.6757156E+002, 1.7453804E+002, 2.5816941E+002
 5.4000477E+002, 4.8618081E+002, 2.6274745E+002, 2.1104406E+002, 2.7421747E+002, 2.7594260E+002, 1.8018273E+002, 2.6615338E+002
 5.5000191E+002, 4.9135160E+002, 2.7097926E+002, 2.1779308E+002, 2.8256737E+002, 2.8430050E+002, 1.8588021E+002, 2.7408482E+002
 5.6002530E+002, 4.9653453E+002, 2.7921023E+002, 2.2459420E+002, 2.9089494E+002, 2.9263283E+002, 1.9163622E+002, 2.8198027E+002
 5.7003014E+002, 5.0171852E+002, 2.8740362E+002, 2.3142212E+002, 2.9916341E+002, 3.0090273E+002, 1.9743815E+002, 2.8986161E+002
 5.8002839E+002, 5.0689759E+002, 2.9555839E+002, 2.3827307E+002, 3.0737617E+002, 3.0911402E+002, 2.0328435E+002, 2.9777803E+002
 5.9002441E+002, 5.1207580E+002, 3.0368763E+002, 2.4515349E+002, 3.1554829E+002, 3.1728226E+002, 2.0917363E+002, 3.0566301E+002
 6.0001399E+002, 5.1725320E+002, 3.1178728E+002, 2.5206310E+002, 3.2367594E+002, 3.2540356E+002, 2.1511224E+002, 3.1360452E+002
 6.1001744E+002, 5.2242828E+002, 3.1989285E+002, 2.5902389E+002, 3.3179984E+002, 3.3351928E+002, 2.2111411E+002, 3.2162682E+002
 6.2001778E+002, 5.2500000E+002, 3.2802920E+002, 2.6604963E+002, 3.3994792E+002, 3.4165769E+002, 2.2718286E+002, 3.2970589E+002
 6.3002691E+002, 5.2500000E+002, 3.3608255E+002, 2.7305343E+002, 3.4798764E+002, 3.4968478E+002, 2.3321295E+002, 3.3733427E+002
 6.4001811E+002, 5.2500000E+002, 3.4385737E+002, 2.7987010E+002, 3.5570781E+002, 3.5738790E+002, 2.3903514E+002, 3.4433778E+002
 6.5000069E+002, 5.2500000E+002, 3.5125615E+002, 2.8640762E+002, 3.6301312E+002, 3.6467168E+002, 2.4458226E+002, 3.5082816E+002
 6.6003499E+002, 5.2500000E+002, 3.5830176E+002, 2.9267508E+002, 3.6993535E+002, 3.7156864E+002, 2.4987590E+002, 3.5688323E+002
 6.7001844E+002, 5.3144285E+002, 3.6497754E+002, 2.9866112E+002, 3.7646430E+002, 3.7806937E+002, 2.5492750E+002, 3.6272744E+002
 6.8000698E+002, 5.4420684E+002, 3.7152442E+002, 3.0455881E+002, 3.8287907E+002, 3.8445653E+002, 2.5998016E+002, 3.6916904E+002
 6.9003333E+002, 5.5699287E+002, 3.7828924E+002, 3.1070375E+002, 3.8954900E+002, 3.9110230E+002, 2.6540921E+002, 3.7658984E+002
 7.0003325E+002, 5.6978544E+002, 3.8550718E+002, 3.1731205E+002, 3.9671924E+002, 3.9825310E+002, 2.7139742E+002, 3.8508754E+002
 7.1000667E+002, 5.8254865E+002, 3.9327976E+002, 3.2447710E+002, 4.0448513E+002, 4.0600379E+002, 2.7799103E+002, 3.9446816E+002
 7.2000441E+002, 5.9530800E+002, 4.0163527E+002, 3.3223037E+002, 4.1286202E+002, 4.1436850E+002, 2.8518487E+002, 4.0456156E+002
 7.3002229E+002, 6.0809256E+002, 4.1054202E+002, 3.4055383E+002, 4.2180468E+002, 4.2330068E+002, 2.9295026E+002, 4.1523118E+002
 7.4001224E+002, 6.2087219E+002, 4.1995944E+002, 3.4940894E+002, 4.3126865E+002, 4.3275499E+002, 3.0125686E+002, 4.2647310E+002
 7.5001715E+002, 6.3365325E+002, 4.2984174E+002, 3.5875331E+002, 4.4120176E+002, 4.4267844E+002, 3.1006334E+002, 4.3818754E+002
 7.6002449E+002, 6.4055948E+002, 4.4018408E+002, 3.6856716E+002, 4.5159787E+002, 4.5306451E+002, 3.1934062E+002, 4.5022764E+002
 7.7000633E+002, 6.4167024E+002, 4.5066471E+002, 3.7857008E+002, 4.6209605E+002, 4.6354914E+002, 3.2874603E+002, 4.6147983E+002
 7.8000851E+002, 6.4278043E+002, 4.6085087E+002, 3.8835067E+002, 4.7223216E+002, 4.7366515E+002, 3.3781552E+002, 4.7139955E+002
 7.9001830E+002, 6.4389185E+002, 4.7050179E+002, 3.9767209E+002, 4.8176873E+002, 4.8317520E+002, 3.4636268E+002, 4.8023421E+002
 8.0001669E+002, 6.4500376E+002, 4.7952674E+002, 4.0643898E+002, 4.9063037E+002, 4.9200573E+002, 3.5434889E+002, 4.8812699E+002
 8.1001085E+002, 6.4611448E+002, 4.8793384E+002, 4.1465338E+002, 4.9884172E+002, 5.0018310E+002, 3.6181803E+002, 4.9538666E+002
 8.2000322E+002, 6.4722480E+002, 4.9586874E+002, 4.2242193E+002, 5.0657089E+002, 5.0787691E+002, 3.6888270E+002, 5.0233307E+002
 8.3000316E+002, 6.4833565E+002, 5.0333456E+002, 4.2976332E+002, 5.1381482E+002, 5.1508427E+002, 3.7555073E+002, 5.0870117E+002
 8.4000692E+002, 6.4944674E+002, 5.1039206E+002, 4.3673453E+002, 5.2064373E+002, 5.2187617E+002, 3.8188749E+002, 5.1480127E+002
 8.5000829E+002, 6.5055814E+002, 5.1710087E+002, 4.4339044E+002, 5.2712131E+002, 5.2831668E+002, 3.8793734E+002, 5.2063377E+002
 8.6001305E+002, 6.5166932E+002, 5.2349063E+002, 4.4976758E+002, 5.3327779E+002, 5.3443638E+002, 3.9373279E+002, 5.2623840E+002
 8.7000768E+002, 6.5278042E+002, 5.2957353E+002, 4.5588934E+002, 5.3912298E+002, 5.4024512E+002, 3.9929354E+002, 5.3146971E+002
 8.8000434E+002, 6.5389108E+002, 5.3528282E+002, 4.6172251E+002, 5.4458225E+002, 5.4566811E+002, 4.0459584E+002, 5.3630750E+002
 8.9001687E+002, 6.5500245E+002, 5.4070318E+002, 4.6733275E+002, 5.4975261E+002, 5.5080283E+002, 4.0970928E+002, 5.4103592E+002
 9.0002404E+002, 6.5611491E+002, 5.4587784E+002, 4.7275283E+002, 5.5468012E+002, 5.5569563E+002, 4.1464987E+002, 5.4564723E+002
 9.1002968E+002, 6.5722667E+002, 5.5084451E+002, 4.7801243E+002, 5.5940418E+002, 5.6038598E+002, 4.1944001E+002, 5.5011043E+002
 9.2000681E+002, 6.5833711E+002, 5.5557842E+002, 4.8309685E+002, 5.6389517E+002, 5.6484403E+002, 4.2406132E+002, 5.5433420E+002
 9.3001984E+002, 6.5944756E+002, 5.6010111E+002, 4.8802636E+002, 5.6817706E+002, 5.6909391E+002, 4.2853738E+002, 5.5845347E+002
 9.4002325E+002, 6.5364187E+002, 5.6444057E+002, 4.9282255E+002, 5.7227755E+002, 5.7316314E+002, 4.3287923E+002, 5.6231008E+002
 9.5003102E+002, 6.4100304E+002, 5.6833112E+002, 4.9724982E+002, 5.7589575E+002, 5.7674808E+002, 4.3676219E+002, 5.6480617E+002
 9.6000196E+002, 6.2838168E+002, 5.7131688E+002, 5.0089614E+002, 5.7853987E+002, 5.7935380E+002, 4.3973011E+002, 5.6539328E+002
 9.7001092E+002, 6.1575921E+002, 5.7318736E+002, 5.0356221E+002, 5.8000583E+002, 5.8077647E+002, 4.4164563E+002, 5.6445374E+002
 9.8000251E+002, 6.0312892E+002, 5.7397746E+002, 5.0526592E+002, 5.8035265E+002, 5.8107681E+002, 4.4259672E+002, 5.6246768E+002
 9.9001027E+002, 5.9049197E+002, 5.7383177E+002, 5.0612439E+002, 5.7974794E+002, 5.8042394E+002, 4.4273604E+002, 5.5981733E+002
 1.0000114E+003, 5.7785833E+002, 5.7287666E+002, 5.0625732E+002, 5.7832684E+002, 5.7895376E+002, 4.4219528E+002, 5.5658100E+002
 1.0100215E+003, 5.6522040E+002, 5.7115181E+002, 5.0572816E+002, 5.7612552E+002, 5.7670283E+002, 4.4104722E+002, 5.5256934E+002
 1.0200087E+003, 5.5259216E+002, 5.6873611E+002, 5.0461168E+002, 5.7323284E+002, 5.7376062E+002, 4.3937623E+002, 5.4832153E+002
 1.0300031E+003, 5.3996883E+002, 5.6579118E+002, 5.0304622E+002, 5.6981967E+002, 5.7029848E+002, 4.3731237E+002, 5.4377386E+002
 1.0400314E+003, 5.2732438E+002, 5.6233418E+002, 5.0106986E+002, 5.6589682E+002, 5.6632705E+002, 4.3488527E+002, 5.3893084E+002
 1.0500353E+003, 5.1467188E+002, 5.5845355E+002, 4.9875158E+002, 5.6155803E+002, 5.6194015E+002, 4.3215147E+002, 5.3387271E+002
 1.0600121E+003, 5.0205582E+002, 5.5413934E+002, 4.9610275E+002, 5.5678565E+002, 5.5712021E+002, 4.2913214E+002, 5.2841809E+002
 1.0700038E+003, 4.8943817E+002, 5.4944124E+002, 4.9316380E+002, 5.5163589E+002, 5.5192357E+002, 4.2586933E+002, 5.2288231E+002
 1.0800091E+003, 4.7680952E+002, 5.4442883E+002, 4.8998769E+002, 5.4618097E+002, 5.4642235E+002, 4.2240541E+002, 5.1721530E+002
 1.0900175E+003, 4.6416875E+002, 5.3914350E+002, 4.8661384E+002, 5.4046284E+002, 5.4065873E+002, 4.1878197E+002, 5.1147362E+002
 1.1000157E+003, 4.5154477E+002, 5.3359654E+002, 4.8305210E+002, 5.3448875E+002, 5.3463972E+002, 4.1499703E+002, 5.0549468E+002
 1.1100359E+003, 4.3888710E+002, 5.2781382E+002, 4.7931654E+002, 5.2828770E+002, 5.2839417E+002, 4.1106790E+002, 4.9951981E+002
 1.1200319E+003, 4.2624531E+002, 5.2182574E+002, 4.7543701E+002, 5.2188857E+002, 5.2195123E+002, 4.0702953E+002, 4.9332140E+002
 1.1300043E+003, 4.1748028E+002, 5.1558757E+002, 4.7138845E+002, 5.1524085E+002, 5.1526054E+002, 4.0287275E+002, 4.8692034E+002
 1.1400212E+003, 4.1248447E+002, 5.0923013E+002, 4.6726569E+002, 5.0849587E+002, 5.0847430E+002, 3.9870958E+002, 4.8094637E+002
 1.1500337E+003, 4.0747455E+002, 5.0293120E+002, 4.6321485E+002, 5.0184277E+002, 5.0178286E+002, 3.9468195E+002, 4.7532465E+002
 1.1600099E+003, 4.0247574E+002, 4.9675330E+002, 4.5929526E+002, 4.9534060E+002, 4.9524576E+002, 3.9083948E+002, 4.7004143E+002
 1.1700197E+003, 3.9748159E+002, 4.9071666E+002, 4.5552232E+002, 4.8900570E+002, 4.8887903E+002, 3.8717622E+002, 4.6495871E+002
 1.1800324E+003, 3.9247526E+002, 4.8483670E+002, 4.5189965E+002, 4.8285332E+002, 4.8269751E+002, 3.8368562E+002, 4.6023671E+002
 1.1900193E+003, 3.8747492E+002, 4.7915934E+002, 4.4844925E+002, 4.7692744E+002, 4.7674474E+002, 3.8036879E+002, 4.5571758E+002
 1.2000197E+003, 3.8248005E+002, 4.7360274E+002, 4.4510828E+002, 4.7113431E+002, 4.7092651E+002, 3.7716796E+002, 4.5114996E+002
 1.2100076E+003, 3.7747964E+002, 4.6815079E+002, 4.4185759E+002, 4.6546093E+002, 4.6522979E+002, 3.7408131E+002, 4.4679541E+002
 1.2200278E+003, 3.7247912E+002, 4.6281937E+002, 4.3869703E+002, 4.5992304E+002, 4.5966999E+002, 3.7109346E+002, 4.4253312E+002
 1.2300316E+003, 3.6747652E+002, 4.5760428E+002, 4.3561150E+002, 4.5451481E+002, 4.5424091E+002, 3.6818458E+002, 4.3836236E+002
 1.2400475E+003, 3.6246822E+002, 4.5246832E+002, 4.3257373E+002, 4.4919394E+002, 4.4890015E+002, 3.6533644E+002, 4.3412568E+002
 1.2500157E+003, 3.5746782E+002, 4.4735803E+002, 4.2954331E+002, 4.4390292E+002, 4.4359020E+002, 3.6252459E+002, 4.2980042E+002
 1.2600360E+003, 3.5247509E+002, 4.4226275E+002, 4.2650641E+002, 4.3863365E+002, 4.3830294E+002, 3.5974679E+002, 4.2543795E+002
 1.2700159E+003, 3.4747477E+002, 4.3719792E+002, 4.2346863E+002, 4.3340515E+002, 4.3305736E+002, 3.5700712E+002, 4.2124861E+002
 1.2800075E+003, 3.4248047E+002, 4.3222217E+002, 4.2047004E+002, 4.2827785E+002, 4.2791400E+002, 3.5433115E+002, 4.1705334E+002
 1.2900427E+003, 3.3747463E+002, 4.2725976E+002, 4.1746145E+002, 4.2316872E+002, 4.2278959E+002, 3.5167628E+002, 4.1282542E+002
 1.3000256E+003, 3.3246924E+002, 4.2233715E+002, 4.1445320E+002, 4.1810655E+002, 4.1771278E+002, 3.4904950E+002, 4.0861017E+002
 1.3100256E+003, 3.2747581E+002, 4.1748657E+002, 4.1146799E+002, 4.1312754E+002, 4.1271997E+002, 3.4647747E+002, 4.0460440E+002
 1.3200253E+003, 3.2247259E+002, 4.1274998E+002, 4.0853895E+002, 4.0827535E+002, 4.0785473E+002, 3.4397777E+002, 4.0072891E+002
 1.3300001E+003, 3.1748188E+002, 4.0810406E+002, 4.0564851E+002, 4.0352004E+002, 4.0308681E+002, 3.4152682E+002, 3.9683378E+002
 1.3400031E+003, 3.1248726E+002, 4.0350792E+002, 4.0276728E+002, 3.9881882E+002, 3.9837341E+002, 3.3910889E+002, 3.9296823E+002
 1.3500091E+003, 3.0748416E+002, 3.9894443E+002, 3.9988223E+002, 3.9415309E+002, 3.9369592E+002, 3.3671057E+002, 3.8898164E+002
 1.3600227E+003, 3.0248116E+002, 3.9439686E+002, 3.9697745E+002, 3.8950614E+002, 3.8903751E+002, 3.3431815E+002, 3.8505618E+002
 1.3700239E+003, 2.9747269E+002, 3.8989552E+002, 3.9407455E+002, 3.8491122E+002, 3.8443148E+002, 3.3195184E+002, 3.8121100E+002
 1.3800418E+003, 2.9246875E+002, 3.8543721E+002, 3.9117596E+002, 3.8036295E+002, 3.7987241E+002, 3.2960936E+002, 3.7730792E+002
 1.3900068E+003, 2.8747322E+002, 3.8102321E+002, 3.8828387E+002, 3.7586370E+002, 3.7536280E+002, 3.2729943E+002, 3.7348988E+002
 1.4000274E+003, 2.8247775E+002, 3.7662553E+002, 3.8537804E+002, 3.7138190E+002, 3.7087099E+002, 3.2499987E+002, 3.6956378E+002
 1.4100441E+003, 2.7747023E+002, 3.7224389E+002, 3.8245672E+002, 3.6692022E+002, 3.6639952E+002, 3.2271277E+002, 3.6574878E+002
 1.4200113E+003, 2.7246882E+002, 3.6794403E+002, 3.7956533E+002, 3.6254714E+002, 3.6201689E+002, 3.2046475E+002, 3.6202950E+002
 1.4300232E+003, 2.6747318E+002, 3.6365365E+002, 3.7665732E+002, 3.5818225E+002, 3.5764266E+002, 3.1822069E+002, 3.5816545E+002
 1.4400522E+003, 2.6246530E+002, 3.5937192E+002, 3.7373405E+002, 3.5382872E+002, 3.5328005E+002, 3.1598940E+002, 3.5436862E+002
 1.4500473E+003, 2.5745844E+002, 3.5513424E+002, 3.7082206E+002, 3.4952301E+002, 3.4896551E+002, 3.1378759E+002, 3.5063817E+002
 1.4600331E+003, 2.5246327E+002, 3.5092661E+002, 3.6791117E+002, 3.4524815E+002, 3.4468205E+002, 3.1160161E+002, 3.4683600E+002
 1.4700462E+003, 2.4746366E+002, 3.4673075E+002, 3.6498611E+002, 3.4098785E+002, 3.4041348E+002, 3.0943008E+002, 3.4307226E+002
 1.4800192E+003, 2.4246725E+002, 3.4256516E+002, 3.6206084E+002, 3.3676114E+002, 3.3617877E+002, 3.0727861E+002, 3.3932768E+002
 1.4900206E+003, 2.3747445E+002, 3.3843708E+002, 3.5914271E+002, 3.3257485E+002, 3.3198458E+002, 3.0514677E+002, 3.3564761E+002
 1.5000439E+003, 2.3246775E+002, 3.3435664E+002, 3.5624116E+002, 3.2844095E+002, 3.2784298E+002, 3.0304586E+002, 3.3210814E+002
 1.5100443E+003, 2.2746632E+002, 3.3035049E+002, 3.5337687E+002, 3.2438583E+002, 3.2378038E+002, 3.0098745E+002, 3.2858317E+002
 1.5200526E+003, 2.2245828E+002, 3.2639580E+002, 3.5053542E+002, 3.2038378E+002, 3.1977098E+002, 2.9895624E+002, 3.2511530E+002
 1.5300556E+003, 2.1745476E+002, 3.2247583E+002, 3.4770500E+002, 3.1641603E+002, 3.1579592E+002, 2.9693901E+002, 3.2158557E+002
 1.5400454E+003, 2.1245739E+002, 3.1857056E+002, 3.4486776E+002, 3.1246244E+002, 3.1183511E+002, 2.9492909E+002, 3.1802870E+002
