Time,TMP,Pressure,Enthalpy,OH,O2,CH4,C_MF,H_MF,N_MF,O_MF
   0.01000, 626.84999,101324.99909,526541.51729,   0.00000,   0.22511,   0.03386,   0.02535,   0.00851,   0.74103,   0.22511
   0.11000, 626.85038,101325.04321,526541.63329,   0.00000,   0.22511,   0.03386,   0.02535,   0.00851,   0.74103,   0.22511
   0.21000, 626.85198,101325.22269,526542.10513,   0.00000,   0.22511,   0.03386,   0.02535,   0.00851,   0.74103,   0.22511
   0.31000, 626.85473,101325.53110,526542.91593,   0.00000,   0.22511,   0.03386,   0.02535,   0.00851,   0.74103,   0.22511
   0.41000, 626.85821,101325.92110,526543.94121,   0.00000,   0.22511,   0.03386,   0.02535,   0.00851,   0.74103,   0.22511
   0.51000, 626.86212,101326.36031,526545.09588,   0.00000,   0.22511,   0.03386,   0.02535,   0.00851,   0.74103,   0.22511
   0.61000, 626.86635,101326.83470,526546.34302,   0.00000,   0.22511,   0.03386,   0.02535,   0.00851,   0.74103,   0.22511
   0.71000, 626.87085,101327.33877,526547.66821,   0.00000,   0.22511,   0.03386,   0.02535,   0.00851,   0.74103,   0.22511
   0.81000, 626.87559,101327.87048,526549.06605,   0.00000,   0.22511,   0.03386,   0.02535,   0.00851,   0.74103,   0.22511
   0.91000, 626.88057,101328.42921,526550.53492,   0.00000,   0.22511,   0.03386,   0.02535,   0.00851,   0.74103,   0.22511
   1.01000, 626.88579,101329.01504,526552.07504,   0.00000,   0.22511,   0.03386,   0.02535,   0.00851,   0.74103,   0.22511
   1.11000, 626.89126,101329.62842,526553.68759,   0.00000,   0.22511,   0.03386,   0.02535,   0.00851,   0.74103,   0.22511
   1.21000, 626.89698,101330.27001,526555.37432,   0.00000,   0.22511,   0.03386,   0.02535,   0.00851,   0.74103,   0.22511
   1.31000, 626.90295,101330.94062,526557.13732,   0.00000,   0.22510,   0.03386,   0.02535,   0.00851,   0.74103,   0.22511
   1.41000, 626.90919,101331.64114,526558.97895,   0.00000,   0.22510,   0.03386,   0.02535,   0.00851,   0.74103,   0.22511
   1.51000, 626.91571,101332.37253,526560.90174,   0.00000,   0.22510,   0.03386,   0.02535,   0.00851,   0.74103,   0.22511
   1.61000, 626.92251,101333.13583,526562.90841,   0.00000,   0.22510,   0.03385,   0.02535,   0.00851,   0.74103,   0.22511
   1.71000, 626.92960,101333.93212,526565.00183,   0.00000,   0.22510,   0.03385,   0.02535,   0.00851,   0.74103,   0.22511
   1.81000, 626.93699,101334.76256,526567.18502,   0.00000,   0.22510,   0.03385,   0.02535,   0.00851,   0.74103,   0.22511
   1.91000, 626.94470,101335.62835,526569.46114,   0.00000,   0.22510,   0.03385,   0.02535,   0.00851,   0.74103,   0.22511
   2.01000, 626.95273,101336.53075,526571.83353,   0.00000,   0.22510,   0.03385,   0.02535,   0.00851,   0.74103,   0.22511
   2.11000, 626.96110,101337.47110,526574.30568,   0.00000,   0.22510,   0.03385,   0.02535,   0.00851,   0.74103,   0.22511
   2.21000, 626.96982,101338.45079,526576.88124,   0.00000,   0.22510,   0.03385,   0.02535,   0.00851,   0.74103,   0.22511
   2.31000, 626.97890,101339.47128,526579.56405,   0.00000,   0.22510,   0.03385,   0.02535,   0.00851,   0.74103,   0.22511
   2.41000, 626.98836,101340.53410,526582.35815,   0.00000,   0.22510,   0.03385,   0.02535,   0.00851,   0.74103,   0.22511
   2.51000, 626.99821,101341.64085,526585.26775,   0.00000,   0.22509,   0.03385,   0.02535,   0.00851,   0.74103,   0.22511
   2.61000, 627.00846,101342.79321,526588.29728,   0.00000,   0.22509,   0.03385,   0.02535,   0.00851,   0.74103,   0.22511
   2.71000, 627.01913,101343.99297,526591.45139,   0.00000,   0.22509,   0.03385,   0.02535,   0.00851,   0.74103,   0.22511
   2.81000, 627.03024,101345.24198,526594.73497,   0.00000,   0.22509,   0.03385,   0.02535,   0.00851,   0.74103,   0.22511
   2.91000, 627.04180,101346.54218,526598.15314,   0.00000,   0.22509,   0.03385,   0.02535,   0.00851,   0.74103,   0.22511
   3.01000, 627.05383,101347.89563,526601.71130,   0.00000,   0.22509,   0.03385,   0.02535,   0.00851,   0.74103,   0.22511
   3.11000, 627.06636,101349.30448,526605.41511,   0.00000,   0.22509,   0.03385,   0.02535,   0.00851,   0.74103,   0.22511
   3.21000, 627.07939,101350.77100,526609.27053,   0.00000,   0.22509,   0.03384,   0.02535,   0.00851,   0.74103,   0.22511
   3.31000, 627.09296,101352.29758,526613.28384,   0.00000,   0.22508,   0.03384,   0.02535,   0.00851,   0.74103,   0.22511
   3.41000, 627.10708,101353.88672,526617.46163,   0.00000,   0.22508,   0.03384,   0.02535,   0.00851,   0.74103,   0.22511
   3.51000, 627.12178,101355.54108,526621.81087,   0.00000,   0.22508,   0.03384,   0.02535,   0.00851,   0.74103,   0.22511
   3.61000, 627.13708,101357.26345,526626.33890,   0.00000,   0.22508,   0.03384,   0.02535,   0.00851,   0.74103,   0.22511
   3.71000, 627.15301,101359.05676,526631.05344,   0.00000,   0.22508,   0.03384,   0.02535,   0.00851,   0.74103,   0.22511
   3.81000, 627.16959,101360.92413,526635.96266,   0.00000,   0.22508,   0.03384,   0.02535,   0.00851,   0.74103,   0.22511
   3.91000, 627.18686,101362.86883,526641.07520,   0.00000,   0.22507,   0.03384,   0.02535,   0.00851,   0.74103,   0.22511
   4.01000, 627.20485,101364.89433,526646.40016,   0.00000,   0.22507,   0.03384,   0.02535,   0.00851,   0.74103,   0.22511
   4.11000, 627.22358,101367.00430,526651.94718,   0.00000,   0.22507,   0.03384,   0.02535,   0.00851,   0.74103,   0.22511
   4.21000, 627.24309,101369.20262,526657.72647,   0.00000,   0.22507,   0.03383,   0.02535,   0.00851,   0.74103,   0.22511
   4.31000, 627.26342,101371.49340,526663.74883,   0.00000,   0.22507,   0.03383,   0.02535,   0.00851,   0.74103,   0.22511
   4.41000, 627.28461,101373.88100,526670.02573,   0.00000,   0.22506,   0.03383,   0.02535,   0.00851,   0.74103,   0.22511
   4.51000, 627.30669,101376.37004,526676.56931,   0.00000,   0.22506,   0.03383,   0.02535,   0.00851,   0.74103,   0.22511
   4.61000, 627.32972,101378.96544,526683.39250,   0.00000,   0.22506,   0.03383,   0.02535,   0.00851,   0.74103,   0.22511
   4.71000, 627.35373,101381.67241,526690.50900,   0.00000,   0.22506,   0.03383,   0.02535,   0.00851,   0.74103,   0.22511
   4.81000, 627.37877,101384.49650,526697.93341,   0.00000,   0.22505,   0.03383,   0.02535,   0.00851,   0.74103,   0.22511
   4.91000, 627.40491,101387.44363,526705.68128,   0.00000,   0.22505,   0.03382,   0.02535,   0.00851,   0.74103,   0.22511
   5.01000, 627.43218,101390.52009,526713.76917,   0.00000,   0.22505,   0.03382,   0.02535,   0.00851,   0.74103,   0.22511
   5.11000, 627.46066,101393.73261,526722.21476,   0.00000,   0.22505,   0.03382,   0.02535,   0.00851,   0.74103,   0.22511
   5.21000, 627.49040,101397.08838,526731.03693,   0.00000,   0.22504,   0.03382,   0.02535,   0.00851,   0.74103,   0.22511
   5.31000, 627.52148,101400.59507,526740.25587,   0.00000,   0.22504,   0.03382,   0.02535,   0.00851,   0.74103,   0.22511
   5.41000, 627.55396,101404.26092,526749.89321,   0.00000,   0.22504,   0.03381,   0.02535,   0.00851,   0.74103,   0.22511
   5.51000, 627.58793,101408.09472,526759.97213,   0.00000,   0.22503,   0.03381,   0.02535,   0.00851,   0.74103,   0.22511
   5.61000, 627.62346,101412.10596,526770.51749,   0.00000,   0.22503,   0.03381,   0.02535,   0.00851,   0.74103,   0.22511
   5.71000, 627.66065,101416.30479,526781.55605,   0.00000,   0.22502,   0.03381,   0.02535,   0.00851,   0.74103,   0.22511
   5.81000, 627.69959,101420.70217,526793.11657,   0.00000,   0.22502,   0.03381,   0.02535,   0.00851,   0.74103,   0.22511
   5.91000, 627.74039,101425.30990,526805.23008,   0.00000,   0.22502,   0.03380,   0.02535,   0.00851,   0.74103,   0.22511
   6.01000, 627.78315,101430.14070,526817.93005,   0.00000,   0.22501,   0.03380,   0.02535,   0.00851,   0.74103,   0.22511
   6.11000, 627.82800,101435.20835,526831.25270,   0.00000,   0.22501,   0.03380,   0.02535,   0.00851,   0.74103,   0.22511
   6.21000, 627.87508,101440.52777,526845.23722,   0.00000,   0.22500,   0.03379,   0.02535,   0.00851,   0.74103,   0.22511
   6.31000, 627.92452,101446.11514,526859.92616,   0.00000,   0.22500,   0.03379,   0.02535,   0.00851,   0.74103,   0.22511
   6.41000, 627.97647,101451.98803,526875.36574,   0.00000,   0.22499,   0.03379,   0.02535,   0.00851,   0.74103,   0.22511
   6.51000, 628.03111,101458.16560,526891.60631,   0.00000,   0.22499,   0.03379,   0.02535,   0.00851,   0.74103,   0.22511
   6.61000, 628.08863,101464.66874,526908.70279,   0.00000,   0.22498,   0.03378,   0.02535,   0.00851,   0.74103,   0.22511
   6.71000, 628.14921,101471.52031,526926.71527,   0.00000,   0.22497,   0.03378,   0.02535,   0.00851,   0.74103,   0.22511
   6.81000, 628.21308,101478.74534,526945.70956,   0.00000,   0.22497,   0.03377,   0.02535,   0.00851,   0.74103,   0.22511
   6.91000, 628.28049,101486.37134,526965.75798,   0.00000,   0.22496,   0.03377,   0.02535,   0.00851,   0.74103,   0.22511
   7.01000, 628.35170,101494.42859,526986.94015,   0.00000,   0.22495,   0.03377,   0.02535,   0.00851,   0.74103,   0.22511
   7.11000, 628.42699,101502.95055,527009.34402,   0.00000,   0.22494,   0.03376,   0.02535,   0.00851,   0.74103,   0.22511
   7.21000, 628.50671,101511.97425,527033.06693,   0.00000,   0.22494,   0.03376,   0.02535,   0.00851,   0.74103,   0.22511
   7.31000, 628.59121,101521.54081,527058.21700,   0.00000,   0.22493,   0.03375,   0.02535,   0.00851,   0.74103,   0.22511
   7.41000, 628.68089,101531.69605,527084.91470,   0.00000,   0.22492,   0.03375,   0.02535,   0.00851,   0.74103,   0.22511
   7.51000, 628.77620,101542.49119,527113.29465,   0.00000,   0.22491,   0.03374,   0.02535,   0.00851,   0.74103,   0.22511
   7.61000, 628.87764,101553.98368,527143.50790,   0.00000,   0.22490,   0.03373,   0.02535,   0.00851,   0.74103,   0.22511
   7.71000, 628.98579,101566.23820,527175.72453,   0.00000,   0.22489,   0.03373,   0.02535,   0.00851,   0.74103,   0.22511
   7.81000, 629.10129,101579.32793,527210.13685,   0.00000,   0.22488,   0.03372,   0.02535,   0.00851,   0.74103,   0.22511
   7.91000, 629.22486,101593.33592,527246.96327,   0.00000,   0.22486,   0.03371,   0.02535,   0.00851,   0.74103,   0.22511
   8.01000, 629.35734,101608.35701,527286.45304,   0.00000,   0.22485,   0.03371,   0.02535,   0.00851,   0.74103,   0.22511
   8.11000, 629.49969,101624.49991,527328.89204,   0.00000,   0.22483,   0.03370,   0.02535,   0.00851,   0.74103,   0.22511
   8.21000, 629.65299,101641.89005,527374.60997,   0.00000,   0.22482,   0.03369,   0.02535,   0.00851,   0.74103,   0.22511
   8.31000, 629.81853,101660.67295,527423.98941,   0.00000,   0.22480,   0.03368,   0.02535,   0.00851,   0.74103,   0.22511
   8.41000, 629.99780,101681.01857,527477.47717,   0.00000,   0.22478,   0.03367,   0.02535,   0.00851,   0.74103,   0.22511
   8.51000, 630.19255,101703.12685,527535.59889,   0.00000,   0.22476,   0.03366,   0.02535,   0.00851,   0.74103,   0.22511
   8.61000, 630.40486,101727.23485,527598.97778,   0.00000,   0.22474,   0.03365,   0.02535,   0.00851,   0.74103,   0.22511
   8.71000, 630.63720,101753.62610,527668.35924,   0.00000,   0.22472,   0.03363,   0.02535,   0.00851,   0.74103,   0.22511
   8.81000, 630.89259,101782.64293,527744.64324,   0.00000,   0.22469,   0.03362,   0.02535,   0.00851,   0.74103,   0.22511
   8.91000, 631.17468,101814.70317,527828.92822,   0.00000,   0.22466,   0.03360,   0.02535,   0.00851,   0.74103,   0.22511
   9.01000, 631.48798,101850.32292,527922.57100,   0.00000,   0.22463,   0.03359,   0.02535,   0.00851,   0.74103,   0.22511
   9.11000, 631.83815,101890.14838,528027.27044,   0.00000,   0.22459,   0.03357,   0.02535,   0.00851,   0.74103,   0.22511
   9.21000, 632.23239,101935.00117,528145.18649,   0.00000,   0.22455,   0.03354,   0.02535,   0.00851,   0.74103,   0.22511
   9.31000, 632.67997,101985.94444,528279.11415,   0.00000,   0.22451,   0.03352,   0.02535,   0.00851,   0.74103,   0.22511
   9.41000, 633.19318,102044.38145,528432.74255,   0.00000,   0.22446,   0.03349,   0.02535,   0.00851,   0.74103,   0.22511
   9.51000, 633.78858,102112.20948,528611.05951,   0.00000,   0.22440,   0.03346,   0.02535,   0.00851,   0.74103,   0.22511
   9.61000, 634.48920,102192.06574,528820.99818,   0.00000,   0.22432,   0.03342,   0.02535,   0.00851,   0.74103,   0.22511
   9.71000, 635.32813,102287.74001,529072.52170,   0.00000,   0.22424,   0.03338,   0.02535,   0.00851,   0.74103,   0.22511
   9.81000, 636.35481,102404.90299,529380.53815,   0.00000,   0.22413,   0.03332,   0.02535,   0.00851,   0.74103,   0.22511
   9.91000, 637.64698,102552.47592,529768.50103,   0.00000,   0.22400,   0.03326,   0.02535,   0.00851,   0.74103,   0.22511
  10.01000, 639.33486,102745.41288,530275.72398,   0.00000,   0.22383,   0.03317,   0.02535,   0.00851,   0.74103,   0.22511
  10.11000, 641.65527,103010.94867,530973.80615,   0.00000,   0.22359,   0.03305,   0.02535,   0.00851,   0.74103,   0.22511
  10.21000, 645.09060,103404.63650,532008.79452,   0.00000,   0.22324,   0.03288,   0.02535,   0.00851,   0.74103,   0.22511
  10.31000, 650.80221,104060.49629,533733.02177,   0.00000,   0.22266,   0.03261,   0.02535,   0.00851,   0.74103,   0.22511
  10.41000, 662.55720,105414.54551,537292.75950,   0.00000,   0.22146,   0.03207,   0.02535,   0.00851,   0.74103,   0.22511
  10.51000, 712.92645,111259.56801,552659.07114,   0.00000,   0.21643,   0.02996,   0.02535,   0.00851,   0.74103,   0.22511
  10.61000,2116.84221,270213.55079,970542.24665,   0.00395,   0.08441,   0.00000,   0.02535,   0.00851,   0.74103,   0.22511
  10.71000,2113.13607,269774.10196,969386.95435,   0.00388,   0.08343,   0.00000,   0.02535,   0.00851,   0.74103,   0.22511
  10.81000,2112.90113,269746.23814,969313.70154,   0.00388,   0.08336,   0.00000,   0.02535,   0.00851,   0.74103,   0.22511
  10.91000,2112.88629,269744.47722,969309.07218,   0.00388,   0.08336,   0.00000,   0.02535,   0.00851,   0.74103,   0.22511
  11.01000,2112.88535,269744.36588,969308.77947,   0.00388,   0.08336,   0.00000,   0.02535,   0.00851,   0.74103,   0.22511
  11.11000,2112.88529,269744.35882,969308.76090,   0.00388,   0.08336,   0.00000,   0.02535,   0.00851,   0.74103,   0.22511
  11.21000,2112.88528,269744.35837,969308.75971,   0.00388,   0.08336,   0.00000,   0.02535,   0.00851,   0.74103,   0.22511
  11.31000,2112.88528,269744.35834,969308.75964,   0.00388,   0.08336,   0.00000,   0.02535,   0.00851,   0.74103,   0.22511
  11.41000,2112.88528,269744.35834,969308.75963,   0.00388,   0.08336,   0.00000,   0.02535,   0.00851,   0.74103,   0.22511
  11.51000,2112.88528,269744.35834,969308.75963,   0.00388,   0.08336,   0.00000,   0.02535,   0.00851,   0.74103,   0.22511
  11.61000,2112.88528,269744.35834,969308.75963,   0.00388,   0.08336,   0.00000,   0.02535,   0.00851,   0.74103,   0.22511
  11.71000,2112.88528,269744.35834,969308.75963,   0.00388,   0.08336,   0.00000,   0.02535,   0.00851,   0.74103,   0.22511
  11.81000,2112.88528,269744.35834,969308.75963,   0.00388,   0.08336,   0.00000,   0.02535,   0.00851,   0.74103,   0.22511
  11.91000,2112.88528,269744.35834,969308.75963,   0.00388,   0.08336,   0.00000,   0.02535,   0.00851,   0.74103,   0.22511
  12.01000,2112.88528,269744.35834,969308.75963,   0.00388,   0.08336,   0.00000,   0.02535,   0.00851,   0.74103,   0.22511
  12.11000,2112.88528,269744.35834,969308.75963,   0.00388,   0.08336,   0.00000,   0.02535,   0.00851,   0.74103,   0.22511
  12.21000,2112.88528,269744.35834,969308.75963,   0.00388,   0.08336,   0.00000,   0.02535,   0.00851,   0.74103,   0.22511
  12.31000,2112.88528,269744.35834,969308.75963,   0.00388,   0.08336,   0.00000,   0.02535,   0.00851,   0.74103,   0.22511
  12.41000,2112.88528,269744.35834,969308.75963,   0.00388,   0.08336,   0.00000,   0.02535,   0.00851,   0.74103,   0.22511
  12.51000,2112.88528,269744.35834,969308.75963,   0.00388,   0.08336,   0.00000,   0.02535,   0.00851,   0.74103,   0.22511
  12.61000,2112.88528,269744.35834,969308.75963,   0.00388,   0.08336,   0.00000,   0.02535,   0.00851,   0.74103,   0.22511
  12.71000,2112.88528,269744.35834,969308.75963,   0.00388,   0.08336,   0.00000,   0.02535,   0.00851,   0.74103,   0.22511
  12.81000,2112.88528,269744.35834,969308.75963,   0.00388,   0.08336,   0.00000,   0.02535,   0.00851,   0.74103,   0.22511
  12.91000,2112.88528,269744.35834,969308.75963,   0.00388,   0.08336,   0.00000,   0.02535,   0.00851,   0.74103,   0.22511
  13.01000,2112.88528,269744.35834,969308.75963,   0.00388,   0.08336,   0.00000,   0.02535,   0.00851,   0.74103,   0.22511
  13.11000,2112.88528,269744.35834,969308.75963,   0.00388,   0.08336,   0.00000,   0.02535,   0.00851,   0.74103,   0.22511
  13.21000,2112.88528,269744.35834,969308.75963,   0.00388,   0.08336,   0.00000,   0.02535,   0.00851,   0.74103,   0.22511
  13.31000,2112.88528,269744.35834,969308.75963,   0.00388,   0.08336,   0.00000,   0.02535,   0.00851,   0.74103,   0.22511
  13.41000,2112.88528,269744.35834,969308.75963,   0.00388,   0.08336,   0.00000,   0.02535,   0.00851,   0.74103,   0.22511
  13.51000,2112.88528,269744.35834,969308.75963,   0.00388,   0.08336,   0.00000,   0.02535,   0.00851,   0.74103,   0.22511
  13.61000,2112.88528,269744.35834,969308.75963,   0.00388,   0.08336,   0.00000,   0.02535,   0.00851,   0.74103,   0.22511
  13.71000,2112.88528,269744.35834,969308.75963,   0.00388,   0.08336,   0.00000,   0.02535,   0.00851,   0.74103,   0.22511
  13.81000,2112.88528,269744.35834,969308.75963,   0.00388,   0.08336,   0.00000,   0.02535,   0.00851,   0.74103,   0.22511
  13.91000,2112.88528,269744.35834,969308.75963,   0.00388,   0.08336,   0.00000,   0.02535,   0.00851,   0.74103,   0.22511
  14.01000,2112.88528,269744.35834,969308.75963,   0.00388,   0.08336,   0.00000,   0.02535,   0.00851,   0.74103,   0.22511
  14.11000,2112.88528,269744.35834,969308.75963,   0.00388,   0.08336,   0.00000,   0.02535,   0.00851,   0.74103,   0.22511
  14.21000,2112.88528,269744.35834,969308.75963,   0.00388,   0.08336,   0.00000,   0.02535,   0.00851,   0.74103,   0.22511
  14.31000,2112.88528,269744.35834,969308.75963,   0.00388,   0.08336,   0.00000,   0.02535,   0.00851,   0.74103,   0.22511
  14.41000,2112.88528,269744.35834,969308.75963,   0.00388,   0.08336,   0.00000,   0.02535,   0.00851,   0.74103,   0.22511
  14.51000,2112.88528,269744.35834,969308.75963,   0.00388,   0.08336,   0.00000,   0.02535,   0.00851,   0.74103,   0.22511
  14.61000,2112.88528,269744.35834,969308.75963,   0.00388,   0.08336,   0.00000,   0.02535,   0.00851,   0.74103,   0.22511
  14.71000,2112.88528,269744.35834,969308.75963,   0.00388,   0.08336,   0.00000,   0.02535,   0.00851,   0.74103,   0.22511
  14.81000,2112.88528,269744.35834,969308.75963,   0.00388,   0.08336,   0.00000,   0.02535,   0.00851,   0.74103,   0.22511
  14.91000,2112.88528,269744.35834,969308.75963,   0.00388,   0.08336,   0.00000,   0.02535,   0.00851,   0.74103,   0.22511
  15.01000,2112.88528,269744.35834,969308.75963,   0.00388,   0.08336,   0.00000,   0.02535,   0.00851,   0.74103,   0.22511
  15.11000,2112.88528,269744.35834,969308.75963,   0.00388,   0.08336,   0.00000,   0.02535,   0.00851,   0.74103,   0.22511
  15.21000,2112.88528,269744.35834,969308.75963,   0.00388,   0.08336,   0.00000,   0.02535,   0.00851,   0.74103,   0.22511
  15.31000,2112.88528,269744.35834,969308.75963,   0.00388,   0.08336,   0.00000,   0.02535,   0.00851,   0.74103,   0.22511
  15.41000,2112.88528,269744.35834,969308.75963,   0.00388,   0.08336,   0.00000,   0.02535,   0.00851,   0.74103,   0.22511
  15.51000,2112.88528,269744.35834,969308.75963,   0.00388,   0.08336,   0.00000,   0.02535,   0.00851,   0.74103,   0.22511
  15.61000,2112.88528,269744.35834,969308.75963,   0.00388,   0.08336,   0.00000,   0.02535,   0.00851,   0.74103,   0.22511
  15.71000,2112.88528,269744.35834,969308.75963,   0.00388,   0.08336,   0.00000,   0.02535,   0.00851,   0.74103,   0.22511
  15.81000,2112.88528,269744.35834,969308.75963,   0.00388,   0.08336,   0.00000,   0.02535,   0.00851,   0.74103,   0.22511
