Time,TMP,Pressure,Enthalpy,OH,O2,CH4,C_MF,H_MF,N_MF,O_MF
   0.01000, 626.84999,101324.99847,526541.51565,   0.00000,   0.22511,   0.03386,   0.02535,   0.00851,   0.74103,   0.22511
   0.11000, 626.85183,101325.20615,526542.06164,   0.00000,   0.22511,   0.03386,   0.02535,   0.00851,   0.74103,   0.22511
   0.21000, 626.85757,101325.84956,526543.75314,   0.00000,   0.22511,   0.03386,   0.02535,   0.00851,   0.74103,   0.22511
   0.31000, 626.86512,101326.69620,526545.97893,   0.00000,   0.22511,   0.03386,   0.02535,   0.00851,   0.74103,   0.22511
   0.41000, 626.87366,101327.65427,526548.49764,   0.00000,   0.22511,   0.03386,   0.02535,   0.00851,   0.74103,   0.22511
   0.51000, 626.88306,101328.70901,526551.27051,   0.00000,   0.22511,   0.03386,   0.02535,   0.00851,   0.74103,   0.22511
   0.61000, 626.89333,101329.86066,526554.29815,   0.00000,   0.22511,   0.03386,   0.02535,   0.00851,   0.74103,   0.22511
   0.71000, 626.90449,101331.11349,526557.59177,   0.00000,   0.22510,   0.03386,   0.02535,   0.00851,   0.74103,   0.22511
   0.81000, 626.91660,101332.47333,526561.16674,   0.00000,   0.22510,   0.03386,   0.02535,   0.00851,   0.74103,   0.22511
   0.91000, 626.92973,101333.94697,526565.04087,   0.00000,   0.22510,   0.03385,   0.02535,   0.00851,   0.74103,   0.22511
   1.01000, 626.94393,101335.54191,526569.23392,   0.00000,   0.22510,   0.03385,   0.02535,   0.00851,   0.74103,   0.22511
   1.11000, 626.95928,101337.26643,526573.76759,   0.00000,   0.22510,   0.03385,   0.02535,   0.00851,   0.74103,   0.22511
   1.21000, 626.97586,101339.12954,526578.66563,   0.00000,   0.22510,   0.03385,   0.02535,   0.00851,   0.74103,   0.22511
   1.31000, 626.99376,101341.14112,526583.95399,   0.00000,   0.22509,   0.03385,   0.02535,   0.00851,   0.74103,   0.22511
   1.41000, 627.01307,101343.31198,526589.66107,   0.00000,   0.22509,   0.03385,   0.02535,   0.00851,   0.74103,   0.22511
   1.51000, 627.03390,101345.65394,526595.81800,   0.00000,   0.22509,   0.03385,   0.02535,   0.00851,   0.74103,   0.22511
   1.61000, 627.05636,101348.17999,526602.45887,   0.00000,   0.22509,   0.03385,   0.02535,   0.00851,   0.74103,   0.22511
   1.71000, 627.08058,101350.90437,526609.62115,   0.00000,   0.22509,   0.03384,   0.02535,   0.00851,   0.74103,   0.22511
   1.81000, 627.10669,101353.84276,526617.34607,   0.00000,   0.22508,   0.03384,   0.02535,   0.00851,   0.74103,   0.22511
   1.91000, 627.13485,101357.01245,526625.67904,   0.00000,   0.22508,   0.03384,   0.02535,   0.00851,   0.74103,   0.22511
   2.01000, 627.16523,101360.43251,526634.67024,   0.00000,   0.22508,   0.03384,   0.02535,   0.00851,   0.74103,   0.22511
   2.11000, 627.19801,101364.12408,526644.37519,   0.00000,   0.22507,   0.03384,   0.02535,   0.00851,   0.74103,   0.22511
   2.21000, 627.23340,101368.11057,526654.85551,   0.00000,   0.22507,   0.03383,   0.02535,   0.00851,   0.74103,   0.22511
   2.31000, 627.27163,101372.41806,526666.17972,   0.00000,   0.22507,   0.03383,   0.02535,   0.00851,   0.74103,   0.22511
   2.41000, 627.31295,101377.07563,526678.42426,   0.00000,   0.22506,   0.03383,   0.02535,   0.00851,   0.74103,   0.22511
   2.51000, 627.35766,101382.11579,526691.67462,   0.00000,   0.22506,   0.03383,   0.02535,   0.00851,   0.74103,   0.22511
   2.61000, 627.40607,101387.57505,526706.02678,   0.00000,   0.22505,   0.03382,   0.02535,   0.00851,   0.74103,   0.22511
   2.71000, 627.45855,101393.49450,526721.58877,   0.00000,   0.22505,   0.03382,   0.02535,   0.00851,   0.74103,   0.22511
   2.81000, 627.51551,101399.92060,526738.48271,   0.00000,   0.22504,   0.03382,   0.02535,   0.00851,   0.74103,   0.22511
   2.91000, 627.57740,101406.90604,526756.84714,   0.00000,   0.22503,   0.03381,   0.02535,   0.00851,   0.74103,   0.22511
   3.01000, 627.64476,101414.51089,526776.83995,   0.00000,   0.22503,   0.03381,   0.02535,   0.00851,   0.74103,   0.22511
   3.11000, 627.71820,101422.80384,526798.64178,   0.00000,   0.22502,   0.03380,   0.02535,   0.00851,   0.74103,   0.22511
   3.21000, 627.79841,101431.86398,526822.46048,   0.00000,   0.22501,   0.03380,   0.02535,   0.00851,   0.74103,   0.22511
   3.31000, 627.88619,101441.78274,526848.53647,   0.00000,   0.22500,   0.03379,   0.02535,   0.00851,   0.74103,   0.22511
   3.41000, 627.98248,101452.66650,526877.14942,   0.00000,   0.22499,   0.03379,   0.02535,   0.00851,   0.74103,   0.22511
   3.51000, 628.08838,101464.63984,526908.62681,   0.00000,   0.22498,   0.03378,   0.02535,   0.00851,   0.74103,   0.22511
   3.61000, 628.20517,101477.84964,526943.35479,   0.00000,   0.22497,   0.03377,   0.02535,   0.00851,   0.74103,   0.22511
   3.71000, 628.33440,101492.47045,526981.79227,   0.00000,   0.22495,   0.03377,   0.02535,   0.00851,   0.74103,   0.22511
   3.81000, 628.47790,101508.71150,527024.48930,   0.00000,   0.22494,   0.03376,   0.02535,   0.00851,   0.74103,   0.22511
   3.91000, 628.63789,101526.82597,527072.11148,   0.00000,   0.22492,   0.03375,   0.02535,   0.00851,   0.74103,   0.22511
   4.01000, 628.81710,101547.12358,527125.47300,   0.00000,   0.22490,   0.03374,   0.02535,   0.00851,   0.74103,   0.22511
   4.11000, 629.01889,101569.98771,527185.58182,   0.00000,   0.22488,   0.03373,   0.02535,   0.00851,   0.74103,   0.22511
   4.21000, 629.24749,101595.89947,527253.70272,   0.00000,   0.22486,   0.03371,   0.02535,   0.00851,   0.74103,   0.22511
   4.31000, 629.50827,101625.47203,527331.44772,   0.00000,   0.22483,   0.03370,   0.02535,   0.00851,   0.74103,   0.22511
   4.41000, 629.80822,101659.50114,527420.90879,   0.00000,   0.22480,   0.03368,   0.02535,   0.00851,   0.74103,   0.22511
   4.51000, 630.15658,101699.04107,527524.85757,   0.00000,   0.22477,   0.03366,   0.02535,   0.00851,   0.74103,   0.22511
   4.61000, 630.56589,101745.52343,527647.05768,   0.00000,   0.22472,   0.03364,   0.02535,   0.00851,   0.74103,   0.22511
   4.71000, 631.05370,101800.95006,527792.77191,   0.00000,   0.22467,   0.03361,   0.02535,   0.00851,   0.74103,   0.22511
   4.81000, 631.64540,101868.22175,527969.62632,   0.00000,   0.22461,   0.03358,   0.02535,   0.00851,   0.74103,   0.22511
   4.91000, 632.37944,101951.73164,528189.17024,   0.00000,   0.22454,   0.03354,   0.02535,   0.00851,   0.74103,   0.22511
   5.01000, 633.31733,102058.51662,528469.90338,   0.00000,   0.22444,   0.03348,   0.02535,   0.00851,   0.74103,   0.22511
   5.11000, 634.56506,102200.70739,528843.71690,   0.00000,   0.22432,   0.03342,   0.02535,   0.00851,   0.74103,   0.22511
   5.21000, 636.32439,102401.42007,529371.38211,   0.00000,   0.22414,   0.03332,   0.02535,   0.00851,   0.74103,   0.22511
   5.31000, 639.03892,102711.55411,530186.71073,   0.00000,   0.22386,   0.03318,   0.02535,   0.00851,   0.74103,   0.22511
   5.41000, 643.93136,103271.68035,531659.25849,   0.00000,   0.22336,   0.03294,   0.02535,   0.00851,   0.74103,   0.22511
   5.51000, 656.11953,104672.23493,535341.25615,   0.00000,   0.22212,   0.03236,   0.02535,   0.00851,   0.74103,   0.22511
   5.61000,2183.20993,277047.60242,988508.67554,   0.00209,   0.08942,   0.00000,   0.02535,   0.00851,   0.74103,   0.22511
   5.71000,2112.95436,269752.56929,969330.34589,   0.00388,   0.08338,   0.00000,   0.02535,   0.00851,   0.74103,   0.22511
   5.81000,2112.88551,269744.38488,969308.82942,   0.00388,   0.08336,   0.00000,   0.02535,   0.00851,   0.74103,   0.22511
   5.91000,2112.88528,269744.35843,969308.75987,   0.00388,   0.08336,   0.00000,   0.02535,   0.00851,   0.74103,   0.22511
   6.01000,2112.88528,269744.35834,969308.75963,   0.00388,   0.08336,   0.00000,   0.02535,   0.00851,   0.74103,   0.22511
   6.11000,2112.88528,269744.35834,969308.75963,   0.00388,   0.08336,   0.00000,   0.02535,   0.00851,   0.74103,   0.22511
   6.21000,2112.88528,269744.35834,969308.75963,   0.00388,   0.08336,   0.00000,   0.02535,   0.00851,   0.74103,   0.22511
   6.31000,2112.88528,269744.35834,969308.75963,   0.00388,   0.08336,   0.00000,   0.02535,   0.00851,   0.74103,   0.22511
   6.41000,2112.88528,269744.35834,969308.75963,   0.00388,   0.08336,   0.00000,   0.02535,   0.00851,   0.74103,   0.22511
   6.51000,2112.88528,269744.35834,969308.75963,   0.00388,   0.08336,   0.00000,   0.02535,   0.00851,   0.74103,   0.22511
   6.61000,2112.88528,269744.35834,969308.75963,   0.00388,   0.08336,   0.00000,   0.02535,   0.00851,   0.74103,   0.22511
   6.71000,2112.88528,269744.35834,969308.75963,   0.00388,   0.08336,   0.00000,   0.02535,   0.00851,   0.74103,   0.22511
   6.81000,2112.88528,269744.35834,969308.75963,   0.00388,   0.08336,   0.00000,   0.02535,   0.00851,   0.74103,   0.22511
   6.91000,2112.88528,269744.35834,969308.75963,   0.00388,   0.08336,   0.00000,   0.02535,   0.00851,   0.74103,   0.22511
   7.01000,2112.88528,269744.35834,969308.75963,   0.00388,   0.08336,   0.00000,   0.02535,   0.00851,   0.74103,   0.22511
   7.11000,2112.88528,269744.35834,969308.75963,   0.00388,   0.08336,   0.00000,   0.02535,   0.00851,   0.74103,   0.22511
   7.21000,2112.88528,269744.35834,969308.75963,   0.00388,   0.08336,   0.00000,   0.02535,   0.00851,   0.74103,   0.22511
   7.31000,2112.88528,269744.35834,969308.75963,   0.00388,   0.08336,   0.00000,   0.02535,   0.00851,   0.74103,   0.22511
   7.41000,2112.88528,269744.35834,969308.75963,   0.00388,   0.08336,   0.00000,   0.02535,   0.00851,   0.74103,   0.22511
   7.51000,2112.88528,269744.35834,969308.75963,   0.00388,   0.08336,   0.00000,   0.02535,   0.00851,   0.74103,   0.22511
   7.61000,2112.88528,269744.35834,969308.75963,   0.00388,   0.08336,   0.00000,   0.02535,   0.00851,   0.74103,   0.22511
   7.71000,2112.88528,269744.35834,969308.75963,   0.00388,   0.08336,   0.00000,   0.02535,   0.00851,   0.74103,   0.22511
   7.81000,2112.88528,269744.35834,969308.75963,   0.00388,   0.08336,   0.00000,   0.02535,   0.00851,   0.74103,   0.22511
   7.91000,2112.88528,269744.35834,969308.75963,   0.00388,   0.08336,   0.00000,   0.02535,   0.00851,   0.74103,   0.22511
   8.01000,2112.88528,269744.35834,969308.75963,   0.00388,   0.08336,   0.00000,   0.02535,   0.00851,   0.74103,   0.22511
   8.11000,2112.88528,269744.35834,969308.75963,   0.00388,   0.08336,   0.00000,   0.02535,   0.00851,   0.74103,   0.22511
   8.21000,2112.88528,269744.35834,969308.75963,   0.00388,   0.08336,   0.00000,   0.02535,   0.00851,   0.74103,   0.22511
   8.31000,2112.88528,269744.35834,969308.75963,   0.00388,   0.08336,   0.00000,   0.02535,   0.00851,   0.74103,   0.22511
   8.41000,2112.88528,269744.35834,969308.75963,   0.00388,   0.08336,   0.00000,   0.02535,   0.00851,   0.74103,   0.22511
   8.51000,2112.88528,269744.35834,969308.75963,   0.00388,   0.08336,   0.00000,   0.02535,   0.00851,   0.74103,   0.22511
   8.61000,2112.88528,269744.35834,969308.75963,   0.00388,   0.08336,   0.00000,   0.02535,   0.00851,   0.74103,   0.22511
   8.71000,2112.88528,269744.35834,969308.75963,   0.00388,   0.08336,   0.00000,   0.02535,   0.00851,   0.74103,   0.22511
   8.81000,2112.88528,269744.35834,969308.75963,   0.00388,   0.08336,   0.00000,   0.02535,   0.00851,   0.74103,   0.22511
   8.91000,2112.88528,269744.35834,969308.75963,   0.00388,   0.08336,   0.00000,   0.02535,   0.00851,   0.74103,   0.22511
   9.01000,2112.88528,269744.35834,969308.75963,   0.00388,   0.08336,   0.00000,   0.02535,   0.00851,   0.74103,   0.22511
   9.11000,2112.88528,269744.35834,969308.75963,   0.00388,   0.08336,   0.00000,   0.02535,   0.00851,   0.74103,   0.22511
   9.21000,2112.88528,269744.35834,969308.75963,   0.00388,   0.08336,   0.00000,   0.02535,   0.00851,   0.74103,   0.22511
   9.31000,2112.88528,269744.35834,969308.75963,   0.00388,   0.08336,   0.00000,   0.02535,   0.00851,   0.74103,   0.22511
   9.41000,2112.88528,269744.35834,969308.75963,   0.00388,   0.08336,   0.00000,   0.02535,   0.00851,   0.74103,   0.22511
   9.51000,2112.88528,269744.35834,969308.75963,   0.00388,   0.08336,   0.00000,   0.02535,   0.00851,   0.74103,   0.22511
   9.61000,2112.88528,269744.35834,969308.75963,   0.00388,   0.08336,   0.00000,   0.02535,   0.00851,   0.74103,   0.22511
   9.71000,2112.88528,269744.35834,969308.75963,   0.00388,   0.08336,   0.00000,   0.02535,   0.00851,   0.74103,   0.22511
   9.81000,2112.88528,269744.35834,969308.75963,   0.00388,   0.08336,   0.00000,   0.02535,   0.00851,   0.74103,   0.22511
   9.91000,2112.88528,269744.35834,969308.75963,   0.00388,   0.08336,   0.00000,   0.02535,   0.00851,   0.74103,   0.22511
  10.01000,2112.88528,269744.35834,969308.75963,   0.00388,   0.08336,   0.00000,   0.02535,   0.00851,   0.74103,   0.22511
  10.11000,2112.88528,269744.35834,969308.75963,   0.00388,   0.08336,   0.00000,   0.02535,   0.00851,   0.74103,   0.22511
  10.21000,2112.88528,269744.35834,969308.75963,   0.00388,   0.08336,   0.00000,   0.02535,   0.00851,   0.74103,   0.22511
  10.31000,2112.88528,269744.35834,969308.75963,   0.00388,   0.08336,   0.00000,   0.02535,   0.00851,   0.74103,   0.22511
  10.41000,2112.88528,269744.35834,969308.75963,   0.00388,   0.08336,   0.00000,   0.02535,   0.00851,   0.74103,   0.22511
  10.51000,2112.88528,269744.35834,969308.75963,   0.00388,   0.08336,   0.00000,   0.02535,   0.00851,   0.74103,   0.22511
  10.61000,2112.88528,269744.35834,969308.75963,   0.00388,   0.08336,   0.00000,   0.02535,   0.00851,   0.74103,   0.22511
  10.71000,2112.88528,269744.35834,969308.75963,   0.00388,   0.08336,   0.00000,   0.02535,   0.00851,   0.74103,   0.22511
  10.81000,2112.88528,269744.35834,969308.75963,   0.00388,   0.08336,   0.00000,   0.02535,   0.00851,   0.74103,   0.22511
  10.91000,2112.88528,269744.35834,969308.75963,   0.00388,   0.08336,   0.00000,   0.02535,   0.00851,   0.74103,   0.22511
  11.01000,2112.88528,269744.35834,969308.75963,   0.00388,   0.08336,   0.00000,   0.02535,   0.00851,   0.74103,   0.22511
  11.11000,2112.88528,269744.35834,969308.75963,   0.00388,   0.08336,   0.00000,   0.02535,   0.00851,   0.74103,   0.22511
  11.21000,2112.88528,269744.35834,969308.75963,   0.00388,   0.08336,   0.00000,   0.02535,   0.00851,   0.74103,   0.22511
  11.31000,2112.88528,269744.35834,969308.75963,   0.00388,   0.08336,   0.00000,   0.02535,   0.00851,   0.74103,   0.22511
  11.41000,2112.88528,269744.35834,969308.75963,   0.00388,   0.08336,   0.00000,   0.02535,   0.00851,   0.74103,   0.22511
  11.51000,2112.88528,269744.35834,969308.75963,   0.00388,   0.08336,   0.00000,   0.02535,   0.00851,   0.74103,   0.22511
  11.61000,2112.88528,269744.35834,969308.75963,   0.00388,   0.08336,   0.00000,   0.02535,   0.00851,   0.74103,   0.22511
  11.71000,2112.88528,269744.35834,969308.75963,   0.00388,   0.08336,   0.00000,   0.02535,   0.00851,   0.74103,   0.22511
  11.81000,2112.88528,269744.35834,969308.75963,   0.00388,   0.08336,   0.00000,   0.02535,   0.00851,   0.74103,   0.22511
  11.91000,2112.88528,269744.35834,969308.75963,   0.00388,   0.08336,   0.00000,   0.02535,   0.00851,   0.74103,   0.22511
  12.01000,2112.88528,269744.35834,969308.75963,   0.00388,   0.08336,   0.00000,   0.02535,   0.00851,   0.74103,   0.22511
  12.11000,2112.88528,269744.35834,969308.75963,   0.00388,   0.08336,   0.00000,   0.02535,   0.00851,   0.74103,   0.22511
  12.21000,2112.88528,269744.35834,969308.75963,   0.00388,   0.08336,   0.00000,   0.02535,   0.00851,   0.74103,   0.22511
  12.31000,2112.88528,269744.35834,969308.75963,   0.00388,   0.08336,   0.00000,   0.02535,   0.00851,   0.74103,   0.22511
  12.41000,2112.88528,269744.35834,969308.75963,   0.00388,   0.08336,   0.00000,   0.02535,   0.00851,   0.74103,   0.22511
  12.51000,2112.88528,269744.35834,969308.75963,   0.00388,   0.08336,   0.00000,   0.02535,   0.00851,   0.74103,   0.22511
  12.61000,2112.88528,269744.35834,969308.75963,   0.00388,   0.08336,   0.00000,   0.02535,   0.00851,   0.74103,   0.22511
  12.71000,2112.88528,269744.35834,969308.75963,   0.00388,   0.08336,   0.00000,   0.02535,   0.00851,   0.74103,   0.22511
  12.81000,2112.88528,269744.35834,969308.75963,   0.00388,   0.08336,   0.00000,   0.02535,   0.00851,   0.74103,   0.22511
  12.91000,2112.88528,269744.35834,969308.75963,   0.00388,   0.08336,   0.00000,   0.02535,   0.00851,   0.74103,   0.22511
  13.01000,2112.88528,269744.35834,969308.75963,   0.00388,   0.08336,   0.00000,   0.02535,   0.00851,   0.74103,   0.22511
  13.11000,2112.88528,269744.35834,969308.75963,   0.00388,   0.08336,   0.00000,   0.02535,   0.00851,   0.74103,   0.22511
  13.21000,2112.88528,269744.35834,969308.75963,   0.00388,   0.08336,   0.00000,   0.02535,   0.00851,   0.74103,   0.22511
  13.31000,2112.88528,269744.35834,969308.75963,   0.00388,   0.08336,   0.00000,   0.02535,   0.00851,   0.74103,   0.22511
  13.41000,2112.88528,269744.35834,969308.75963,   0.00388,   0.08336,   0.00000,   0.02535,   0.00851,   0.74103,   0.22511
  13.51000,2112.88528,269744.35834,969308.75963,   0.00388,   0.08336,   0.00000,   0.02535,   0.00851,   0.74103,   0.22511
  13.61000,2112.88528,269744.35834,969308.75963,   0.00388,   0.08336,   0.00000,   0.02535,   0.00851,   0.74103,   0.22511
  13.71000,2112.88528,269744.35834,969308.75963,   0.00388,   0.08336,   0.00000,   0.02535,   0.00851,   0.74103,   0.22511
  13.81000,2112.88528,269744.35834,969308.75963,   0.00388,   0.08336,   0.00000,   0.02535,   0.00851,   0.74103,   0.22511
  13.91000,2112.88528,269744.35834,969308.75963,   0.00388,   0.08336,   0.00000,   0.02535,   0.00851,   0.74103,   0.22511
  14.01000,2112.88528,269744.35834,969308.75963,   0.00388,   0.08336,   0.00000,   0.02535,   0.00851,   0.74103,   0.22511
  14.11000,2112.88528,269744.35834,969308.75963,   0.00388,   0.08336,   0.00000,   0.02535,   0.00851,   0.74103,   0.22511
  14.21000,2112.88528,269744.35834,969308.75963,   0.00388,   0.08336,   0.00000,   0.02535,   0.00851,   0.74103,   0.22511
  14.31000,2112.88528,269744.35834,969308.75963,   0.00388,   0.08336,   0.00000,   0.02535,   0.00851,   0.74103,   0.22511
  14.41000,2112.88528,269744.35834,969308.75963,   0.00388,   0.08336,   0.00000,   0.02535,   0.00851,   0.74103,   0.22511
  14.51000,2112.88528,269744.35834,969308.75963,   0.00388,   0.08336,   0.00000,   0.02535,   0.00851,   0.74103,   0.22511
  14.61000,2112.88528,269744.35834,969308.75963,   0.00388,   0.08336,   0.00000,   0.02535,   0.00851,   0.74103,   0.22511
  14.71000,2112.88528,269744.35834,969308.75963,   0.00388,   0.08336,   0.00000,   0.02535,   0.00851,   0.74103,   0.22511
  14.81000,2112.88528,269744.35834,969308.75963,   0.00388,   0.08336,   0.00000,   0.02535,   0.00851,   0.74103,   0.22511
  14.91000,2112.88528,269744.35834,969308.75963,   0.00388,   0.08336,   0.00000,   0.02535,   0.00851,   0.74103,   0.22511
  15.01000,2112.88528,269744.35834,969308.75963,   0.00388,   0.08336,   0.00000,   0.02535,   0.00851,   0.74103,   0.22511
  15.11000,2112.88528,269744.35834,969308.75963,   0.00388,   0.08336,   0.00000,   0.02535,   0.00851,   0.74103,   0.22511
  15.21000,2112.88528,269744.35834,969308.75963,   0.00388,   0.08336,   0.00000,   0.02535,   0.00851,   0.74103,   0.22511
  15.31000,2112.88528,269744.35834,969308.75963,   0.00388,   0.08336,   0.00000,   0.02535,   0.00851,   0.74103,   0.22511
  15.41000,2112.88528,269744.35834,969308.75963,   0.00388,   0.08336,   0.00000,   0.02535,   0.00851,   0.74103,   0.22511
  15.51000,2112.88528,269744.35834,969308.75963,   0.00388,   0.08336,   0.00000,   0.02535,   0.00851,   0.74103,   0.22511
  15.61000,2112.88528,269744.35834,969308.75963,   0.00388,   0.08336,   0.00000,   0.02535,   0.00851,   0.74103,   0.22511
  15.71000,2112.88528,269744.35834,969308.75963,   0.00388,   0.08336,   0.00000,   0.02535,   0.00851,   0.74103,   0.22511
  15.81000,2112.88528,269744.35834,969308.75963,   0.00388,   0.08336,   0.00000,   0.02535,   0.00851,   0.74103,   0.22511
