Time,TMP,Pressure,Enthalpy,OH,O2,CH4,C_MF,H_MF,N_MF,O_MF
   0.00010, 926.84966,101325.00000,910121.77856,   0.00000,   0.22511,   0.03386,   0.02535,   0.00851,   0.74103,   0.22511
   0.00110, 926.84897,101325.00000,910121.77856,   0.00000,   0.22511,   0.03386,   0.02535,   0.00851,   0.74103,   0.22511
   0.00210, 926.85200,101325.00000,910121.77856,   0.00000,   0.22511,   0.03386,   0.02535,   0.00851,   0.74103,   0.22511
   0.00310, 926.86255,101325.00000,910121.77856,   0.00000,   0.22511,   0.03386,   0.02535,   0.00851,   0.74103,   0.22511
   0.00410, 926.88411,101325.00000,910121.77856,   0.00000,   0.22510,   0.03385,   0.02535,   0.00851,   0.74103,   0.22511
   0.00510, 926.91746,101325.00000,910121.77857,   0.00000,   0.22510,   0.03385,   0.02535,   0.00851,   0.74103,   0.22511
   0.00610, 926.96082,101325.00000,910121.77858,   0.00000,   0.22509,   0.03384,   0.02535,   0.00851,   0.74103,   0.22511
   0.00710, 927.01193,101325.00001,910121.77862,   0.00000,   0.22508,   0.03384,   0.02535,   0.00851,   0.74103,   0.22511
   0.00810, 927.06936,101325.00003,910121.77869,   0.00000,   0.22507,   0.03383,   0.02535,   0.00851,   0.74103,   0.22511
   0.00910, 927.13252,101325.00006,910121.77881,   0.00000,   0.22506,   0.03382,   0.02535,   0.00851,   0.74103,   0.22511
   0.01010, 927.20133,101325.00011,910121.77898,   0.00000,   0.22505,   0.03381,   0.02535,   0.00851,   0.74103,   0.22511
   0.01110, 927.27599,101325.00017,910121.77921,   0.00000,   0.22504,   0.03381,   0.02535,   0.00851,   0.74103,   0.22511
   0.01210, 927.35684,101325.00026,910121.77951,   0.00000,   0.22503,   0.03380,   0.02535,   0.00851,   0.74103,   0.22511
   0.01310, 927.44431,101325.00036,910121.77990,   0.00000,   0.22501,   0.03379,   0.02535,   0.00851,   0.74103,   0.22511
   0.01410, 927.53887,101325.00050,910121.78038,   0.00000,   0.22500,   0.03378,   0.02535,   0.00851,   0.74103,   0.22511
   0.01510, 927.64111,101325.00066,910121.78099,   0.00000,   0.22498,   0.03377,   0.02535,   0.00851,   0.74103,   0.22511
   0.01610, 927.75162,101325.00087,910121.78172,   0.00000,   0.22497,   0.03375,   0.02535,   0.00851,   0.74103,   0.22511
   0.01710, 927.87113,101325.00111,910121.78260,   0.00000,   0.22495,   0.03374,   0.02535,   0.00851,   0.74103,   0.22511
   0.01810, 928.00039,101325.00140,910121.78365,   0.00000,   0.22493,   0.03373,   0.02535,   0.00851,   0.74103,   0.22511
   0.01910, 928.14029,101325.00175,910121.78490,   0.00000,   0.22491,   0.03371,   0.02535,   0.00851,   0.74103,   0.22511
   0.02010, 928.29180,101325.00216,910121.78636,   0.00000,   0.22489,   0.03369,   0.02535,   0.00851,   0.74103,   0.22511
   0.02110, 928.45602,101325.00264,910121.78808,   0.00000,   0.22486,   0.03368,   0.02535,   0.00851,   0.74103,   0.22511
   0.02210, 928.63417,101325.00320,910121.79009,   0.00000,   0.22484,   0.03366,   0.02535,   0.00851,   0.74103,   0.22511
   0.02310, 928.82768,101325.00385,910121.79242,   0.00000,   0.22481,   0.03364,   0.02535,   0.00851,   0.74103,   0.22511
   0.02410, 929.03814,101325.00461,910121.79513,   0.00000,   0.22478,   0.03362,   0.02535,   0.00851,   0.74103,   0.22511
   0.02510, 929.26738,101325.00549,910121.79827,   0.00000,   0.22474,   0.03359,   0.02535,   0.00851,   0.74103,   0.22511
   0.02610, 929.51750,101325.00650,910121.80190,   0.00000,   0.22471,   0.03356,   0.02535,   0.00851,   0.74103,   0.22511
   0.02710, 929.79095,101325.00767,910121.80608,   0.00000,   0.22467,   0.03354,   0.02535,   0.00851,   0.74103,   0.22511
   0.02810, 930.09057,101325.00903,910121.81092,   0.00000,   0.22462,   0.03351,   0.02535,   0.00851,   0.74103,   0.22511
   0.02910, 930.41970,101325.01059,910121.81649,   0.00000,   0.22457,   0.03347,   0.02535,   0.00851,   0.74103,   0.22511
   0.03010, 930.78228,101325.01239,910121.82293,   0.00000,   0.22452,   0.03343,   0.02535,   0.00851,   0.74103,   0.22511
   0.03110, 931.18302,101325.01447,910121.83036,   0.00000,   0.22446,   0.03339,   0.02535,   0.00851,   0.74103,   0.22511
   0.03210, 931.62761,101325.01688,910121.83894,   0.00000,   0.22440,   0.03335,   0.02535,   0.00851,   0.74103,   0.22511
   0.03310, 932.12296,101325.01966,910121.84888,   0.00000,   0.22433,   0.03330,   0.02535,   0.00851,   0.74103,   0.22511
   0.03410, 932.67762,101325.02289,910121.86041,   0.00000,   0.22425,   0.03325,   0.02535,   0.00851,   0.74103,   0.22511
   0.03510, 933.30230,101325.02664,910121.87381,   0.00000,   0.22416,   0.03318,   0.02535,   0.00851,   0.74103,   0.22511
   0.03610, 934.01061,101325.03101,910121.88945,   0.00000,   0.22406,   0.03311,   0.02535,   0.00851,   0.74103,   0.22511
   0.03710, 934.82022,101325.03614,910121.90777,   0.00000,   0.22394,   0.03304,   0.02535,   0.00851,   0.74103,   0.22511
   0.03810, 935.75458,101325.04216,910121.92934,   0.00000,   0.22381,   0.03295,   0.02535,   0.00851,   0.74103,   0.22511
   0.03910, 936.84567,101325.04930,910121.95490,   0.00000,   0.22365,   0.03284,   0.02535,   0.00851,   0.74103,   0.22511
   0.04010, 938.13851,101325.05781,910121.98542,   0.00000,   0.22347,   0.03272,   0.02535,   0.00851,   0.74103,   0.22511
   0.04110, 939.69916,101325.06807,910122.02222,   0.00000,   0.22324,   0.03258,   0.02535,   0.00851,   0.74103,   0.22511
   0.04210, 941.62962,101325.08057,910122.06716,   0.00000,   0.22297,   0.03240,   0.02535,   0.00851,   0.74103,   0.22511
   0.04310, 944.09849,101325.09604,910122.12294,   0.00000,   0.22261,   0.03218,   0.02535,   0.00851,   0.74103,   0.22511
   0.04410, 947.41186,101325.11562,910122.19370,   0.00000,   0.22214,   0.03189,   0.02535,   0.00851,   0.74103,   0.22511
   0.04510, 952.20760,101325.14114,910122.28634,   0.00000,   0.22146,   0.03147,   0.02535,   0.00851,   0.74103,   0.22511
   0.04610, 960.15080,101325.17591,910122.41345,   0.00000,   0.22032,   0.03080,   0.02535,   0.00851,   0.74103,   0.22511
   0.04710, 978.02721,101325.22625,910122.60022,   0.00000,   0.21776,   0.02938,   0.02535,   0.00851,   0.74103,   0.22511
   0.04810,1143.57536,101325.22144,910122.57483,   0.00004,   0.19467,   0.01895,   0.02535,   0.00851,   0.74103,   0.22511
   0.04910,2071.83352,101331.44760,910167.65172,   0.00473,   0.08946,   0.00000,   0.02535,   0.00851,   0.74103,   0.22511
   0.05010,2077.52257,101346.74301,910272.37974,   0.00454,   0.08929,   0.00000,   0.02535,   0.00851,   0.74103,   0.22511
   0.05110,2077.45118,101361.69746,910374.04982,   0.00453,   0.08919,   0.00000,   0.02535,   0.00851,   0.74103,   0.22511
   0.05210,2077.29233,101376.18214,910471.78310,   0.00453,   0.08910,   0.00000,   0.02535,   0.00851,   0.74103,   0.22511
   0.05310,2077.13458,101390.21713,910565.78452,   0.00452,   0.08902,   0.00000,   0.02535,   0.00851,   0.74103,   0.22511
   0.05410,2076.97929,101403.82338,910656.25943,   0.00452,   0.08893,   0.00000,   0.02535,   0.00851,   0.74103,   0.22511
   0.05510,2076.82647,101417.02053,910743.39862,   0.00451,   0.08885,   0.00000,   0.02535,   0.00851,   0.74103,   0.22511
   0.05610,2076.67610,101429.82698,910827.37936,   0.00450,   0.08877,   0.00000,   0.02535,   0.00851,   0.74103,   0.22511
   0.05710,2076.52815,101442.26004,910908.36656,   0.00450,   0.08869,   0.00000,   0.02535,   0.00851,   0.74103,   0.22511
   0.05810,2076.38260,101454.33594,910986.51384,   0.00449,   0.08861,   0.00000,   0.02535,   0.00851,   0.74103,   0.22511
   0.05910,2076.23942,101466.06998,911061.96449,   0.00449,   0.08854,   0.00000,   0.02535,   0.00851,   0.74103,   0.22511
   0.06010,2076.09858,101477.47654,911134.85231,   0.00448,   0.08846,   0.00000,   0.02535,   0.00851,   0.74103,   0.22511
   0.06110,2075.96005,101488.56920,911205.30239,   0.00448,   0.08839,   0.00000,   0.02535,   0.00851,   0.74103,   0.22511
   0.06210,2075.82379,101499.36077,911273.43182,   0.00447,   0.08832,   0.00000,   0.02535,   0.00851,   0.74103,   0.22511
   0.06310,2075.68977,101509.86334,911339.35029,   0.00447,   0.08825,   0.00000,   0.02535,   0.00851,   0.74103,   0.22511
   0.06410,2075.55795,101520.08835,911403.16069,   0.00447,   0.08819,   0.00000,   0.02535,   0.00851,   0.74103,   0.22511
   0.06510,2075.42830,101530.04661,911464.95962,   0.00446,   0.08812,   0.00000,   0.02535,   0.00851,   0.74103,   0.22511
   0.06610,2075.30078,101539.74837,911524.83789,   0.00446,   0.08806,   0.00000,   0.02535,   0.00851,   0.74103,   0.22511
   0.06710,2075.17536,101549.20335,911582.88089,   0.00445,   0.08800,   0.00000,   0.02535,   0.00851,   0.74103,   0.22511
   0.06810,2075.05200,101558.42075,911639.16905,   0.00445,   0.08793,   0.00000,   0.02535,   0.00851,   0.74103,   0.22511
   0.06910,2074.93066,101567.40932,911693.77815,   0.00444,   0.08787,   0.00000,   0.02535,   0.00851,   0.74103,   0.22511
   0.07010,2074.81131,101576.17736,911746.77969,   0.00444,   0.08782,   0.00000,   0.02535,   0.00851,   0.74103,   0.22511
   0.07110,2074.69391,101584.73277,911798.24116,   0.00444,   0.08776,   0.00000,   0.02535,   0.00851,   0.74103,   0.22511
   0.07210,2074.57842,101593.08308,911848.22631,   0.00443,   0.08770,   0.00000,   0.02535,   0.00851,   0.74103,   0.22511
   0.07310,2074.46481,101601.23542,911896.79546,   0.00443,   0.08765,   0.00000,   0.02535,   0.00851,   0.74103,   0.22511
   0.07410,2074.35305,101609.19661,911944.00565,   0.00443,   0.08759,   0.00000,   0.02535,   0.00851,   0.74103,   0.22511
   0.07510,2074.24310,101616.97315,911989.91092,   0.00442,   0.08754,   0.00000,   0.02535,   0.00851,   0.74103,   0.22511
   0.07610,2074.13492,101624.57123,912034.56249,   0.00442,   0.08749,   0.00000,   0.02535,   0.00851,   0.74103,   0.22511
   0.07710,2074.02848,101631.99677,912078.00893,   0.00442,   0.08744,   0.00000,   0.02535,   0.00851,   0.74103,   0.22511
   0.07810,2073.92375,101639.25542,912120.29633,   0.00441,   0.08739,   0.00000,   0.02535,   0.00851,   0.74103,   0.22511
   0.07910,2073.82070,101646.35258,912161.46846,   0.00441,   0.08734,   0.00000,   0.02535,   0.00851,   0.74103,   0.22511
   0.08010,2073.71929,101653.29340,912201.56694,   0.00441,   0.08729,   0.00000,   0.02535,   0.00851,   0.74103,   0.22511
   0.08110,2073.61949,101660.08282,912240.63132,   0.00440,   0.08724,   0.00000,   0.02535,   0.00851,   0.74103,   0.22511
   0.08210,2073.52128,101666.72557,912278.69925,   0.00440,   0.08720,   0.00000,   0.02535,   0.00851,   0.74103,   0.22511
   0.08310,2073.42461,101673.22618,912315.80657,   0.00440,   0.08715,   0.00000,   0.02535,   0.00851,   0.74103,   0.22511
   0.08410,2073.32947,101679.58898,912351.98744,   0.00439,   0.08711,   0.00000,   0.02535,   0.00851,   0.74103,   0.22511
   0.08510,2073.23582,101685.81813,912387.27440,   0.00439,   0.08706,   0.00000,   0.02535,   0.00851,   0.74103,   0.22511
   0.08610,2073.14364,101691.91763,912421.69850,   0.00439,   0.08702,   0.00000,   0.02535,   0.00851,   0.74103,   0.22511
   0.08710,2073.05289,101697.89129,912455.28938,   0.00439,   0.08698,   0.00000,   0.02535,   0.00851,   0.74103,   0.22511
   0.08810,2072.96354,101703.74279,912488.07532,   0.00438,   0.08694,   0.00000,   0.02535,   0.00851,   0.74103,   0.22511
   0.08910,2072.87558,101709.47567,912520.08335,   0.00438,   0.08690,   0.00000,   0.02535,   0.00851,   0.74103,   0.22511
   0.09010,2072.78898,101715.09331,912551.33931,   0.00438,   0.08686,   0.00000,   0.02535,   0.00851,   0.74103,   0.22511
   0.09110,2072.70370,101720.59897,912581.86790,   0.00438,   0.08682,   0.00000,   0.02535,   0.00851,   0.74103,   0.22511
   0.09210,2072.61973,101725.99580,912611.69278,   0.00437,   0.08678,   0.00000,   0.02535,   0.00851,   0.74103,   0.22511
   0.09310,2072.53704,101731.28681,912640.83655,   0.00437,   0.08674,   0.00000,   0.02535,   0.00851,   0.74103,   0.22511
   0.09410,2072.45560,101736.47490,912669.32091,   0.00437,   0.08670,   0.00000,   0.02535,   0.00851,   0.74103,   0.22511
   0.09510,2072.37539,101741.56287,912697.16662,   0.00437,   0.08667,   0.00000,   0.02535,   0.00851,   0.74103,   0.22511
   0.09610,2072.29640,101746.55342,912724.39358,   0.00436,   0.08663,   0.00000,   0.02535,   0.00851,   0.74103,   0.22511
   0.09710,2072.21859,101751.44915,912751.02088,   0.00436,   0.08660,   0.00000,   0.02535,   0.00851,   0.74103,   0.22511
   0.09810,2072.14194,101756.25255,912777.06685,   0.00436,   0.08656,   0.00000,   0.02535,   0.00851,   0.74103,   0.22511
   0.09910,2072.06644,101760.96605,912802.54907,   0.00436,   0.08653,   0.00000,   0.02535,   0.00851,   0.74103,   0.22511
