s,m/s,Pa,kg/m/s
FDS Time,"UVEL","PRES","VISC"
 0.0000000E+000, 1.1960343E+000,-1.9612058E+000, 1.0000000E-010
 1.4786113E-002, 1.2270408E+000,-4.8501041E+000, 1.0000000E-010
 3.1050839E-002, 1.2590097E+000,-3.2633362E+000, 1.0000000E-010
 4.5829672E-002, 1.2879393E+000,-3.8966311E+000, 1.0000000E-010
 6.2086388E-002, 1.3195248E+000,-3.8803609E+000, 1.0000000E-010
 7.6865859E-002, 1.3480729E+000,-3.8599573E+000, 1.0000000E-010
 9.3123280E-002, 1.3791857E+000,-3.8397641E+000, 1.0000000E-010
 1.0791756E-001, 1.4072730E+000,-3.8153128E+000, 1.0000000E-010
 1.2419128E-001, 1.4378212E+000,-3.7919391E+000, 1.0000000E-010
 1.3897274E-001, 1.4652863E+000,-3.7635899E+000, 1.0000000E-010
 1.5523237E-001, 1.4950949E+000,-3.7371651E+000, 1.0000000E-010
 1.7001323E-001, 1.5218551E+000,-3.7050746E+000, 1.0000000E-010
 1.8627219E-001, 1.5508352E+000,-3.6756288E+000, 1.0000000E-010
 2.0106654E-001, 1.5768127E+000,-3.6399032E+000, 1.0000000E-010
 2.1734034E-001, 1.6048800E+000,-3.6074866E+000, 1.0000000E-010
 2.3211913E-001, 1.6299253E+000,-3.5682482E+000, 1.0000000E-010
 2.4837582E-001, 1.6569195E+000,-3.5330766E+000, 1.0000000E-010
 2.6315206E-001, 1.6809618E+000,-3.4905511E+000, 1.0000000E-010
 2.7940592E-001, 1.7068075E+000,-3.4526563E+000, 1.0000000E-010
 2.9419112E-001, 1.7297754E+000,-3.4069843E+000, 1.0000000E-010
 3.1045482E-001, 1.7543957E+000,-3.3664534E+000, 1.0000000E-010
 3.2523790E-001, 1.7761858E+000,-3.3177939E+000, 1.0000000E-010
 3.4149927E-001, 1.7994706E+000,-3.2748221E+000, 1.0000000E-010
 3.5627845E-001, 1.8200004E+000,-3.2234056E+000, 1.0000000E-010
 3.7253553E-001, 1.8418619E+000,-3.1781266E+000, 1.0000000E-010
 3.8732049E-001, 1.8610692E+000,-3.1241639E+000, 1.0000000E-010
 4.0358394E-001, 1.8814405E+000,-3.0766760E+000, 1.0000000E-010
 4.1836193E-001, 1.8992377E+000,-3.0203667E+000, 1.0000000E-010
 4.3461770E-001, 1.9180265E+000,-2.9709177E+000, 1.0000000E-010
 4.4938943E-001, 1.9343505E+000,-2.9125322E+000, 1.0000000E-010
 4.6563831E-001, 1.9514899E+000,-2.8612671E+000, 1.0000000E-010
 4.8041233E-001, 1.9662904E+000,-2.8010355E+000, 1.0000000E-010
 4.9666372E-001, 1.9817268E+000,-2.7480875E+000, 1.0000000E-010
 5.1144731E-001, 1.9949540E+000,-2.6862194E+000, 1.0000000E-010
 5.2770919E-001, 2.0086343E+000,-2.6317522E+000, 1.0000000E-010
 5.4248351E-001, 2.0202208E+000,-2.5684955E+000, 1.0000000E-010
 5.5873525E-001, 2.0320759E+000,-2.5128409E+000, 1.0000000E-010
 5.7351059E-001, 2.0419877E+000,-2.4485002E+000, 1.0000000E-010
 5.8976352E-001, 2.0519815E+000,-2.3917571E+000, 1.0000000E-010
 6.0454303E-001, 2.0601820E+000,-2.3265568E+000, 1.0000000E-010
 6.2080055E-001, 2.0682765E+000,-2.2689439E+000, 1.0000000E-010
 6.3556713E-001, 2.0747254E+000,-2.2031632E+000, 1.0000000E-010
 6.5181041E-001, 2.0808817E+000,-2.1450220E+000, 1.0000000E-010
 6.6657656E-001, 2.0855625E+000,-2.0789582E+000, 1.0000000E-010
 6.8281931E-001, 2.0897634E+000,-2.0203897E+000, 1.0000000E-010
 6.9759965E-001, 2.0926605E+000,-1.9542458E+000, 1.0000000E-010
 7.1385801E-001, 2.0948897E+000,-1.8954141E+000, 1.0000000E-010
 7.2862840E-001, 2.0959850E+000,-1.8294573E+000, 1.0000000E-010
 7.4487585E-001, 2.0962291E+000,-1.7707976E+000, 1.0000000E-010
 7.5964463E-001, 2.0955214E+000,-1.7053386E+000, 1.0000000E-010
 7.7589029E-001, 2.0937806E+000,-1.6469677E+000, 1.0000000E-010
 7.9067057E-001, 2.0912703E+000,-1.5822177E+000, 1.0000000E-010
 8.0692887E-001, 2.0875464E+000,-1.5243080E+000, 1.0000000E-010
 8.2169574E-001, 2.0832464E+000,-1.4605436E+000, 1.0000000E-010
 8.3793926E-001, 2.0775602E+000,-1.4035329E+000, 1.0000000E-010
 8.5270256E-001, 2.0714877E+000,-1.3410354E+000, 1.0000000E-010
 8.6894214E-001, 2.0638595E+000,-1.2850278E+000, 1.0000000E-010
 8.8371307E-001, 2.0560325E+000,-1.2239927E+000, 1.0000000E-010
 8.9996105E-001, 2.0464839E+000,-1.1691759E+000, 1.0000000E-010
 9.1473311E-001, 2.0369339E+000,-1.1098311E+000, 1.0000000E-010
 9.3098241E-001, 2.0255037E+000,-1.0565069E+000, 1.0000000E-010
 9.4574982E-001, 2.0142715E+000,-9.9910288E-001, 1.0000000E-010
 9.6199393E-001, 2.0010083E+000,-9.4751523E-001, 1.0000000E-010
 9.7676611E-001, 1.9881298E+000,-8.9225473E-001, 1.0000000E-010
 9.9301553E-001, 1.9730753E+000,-8.4255084E-001, 1.0000000E-010
 1.0077864E+000, 1.9586042E+000,-7.8964152E-001, 1.0000000E-010
 1.0240344E+000, 1.9418215E+000,-7.4209192E-001, 1.0000000E-010
 1.0387986E+000, 1.9258194E+000,-6.9174764E-001, 1.0000000E-010
 1.0550393E+000, 1.9073801E+000,-6.4656770E-001, 1.0000000E-010
 1.0698053E+000, 1.8898997E+000,-5.9895672E-001, 1.0000000E-010
 1.0860479E+000, 1.8698641E+000,-5.5628037E-001, 1.0000000E-010
 1.1008234E+000, 1.8509612E+000,-5.1154975E-001, 1.0000000E-010
 1.1170765E+000, 1.8293931E+000,-4.7154187E-001, 1.0000000E-010
 1.1318424E+000, 1.8091640E+000,-4.2988743E-001, 1.0000000E-010
 1.1480848E+000, 1.7861741E+000,-3.9282444E-001, 1.0000000E-010
 1.1628513E+000, 1.7646824E+000,-3.5438110E-001, 1.0000000E-010
 1.1790944E+000, 1.7403431E+000,-3.2033090E-001, 1.0000000E-010
 1.1938785E+000, 1.7176439E+000,-2.8519734E-001, 1.0000000E-010
 1.2101408E+000, 1.6920175E+000,-2.5426176E-001, 1.0000000E-010
 1.2249112E+000, 1.6682441E+000,-2.2261113E-001, 1.0000000E-010
 1.2411586E+000, 1.6414821E+000,-1.9506362E-001, 1.0000000E-010
 1.2559271E+000, 1.6167067E+000,-1.6698811E-001, 1.0000000E-010
 1.2721725E+000, 1.5888908E+000,-1.4284350E-001, 1.0000000E-010
 1.2869526E+000, 1.5631835E+000,-1.1841628E-001, 1.0000000E-010
 1.3032109E+000, 1.5343927E+000,-9.7753883E-002, 1.0000000E-010
 1.3179879E+000, 1.5078760E+000,-7.7075948E-002, 1.0000000E-010
 1.3342427E+000, 1.4782480E+000,-6.0036048E-002, 1.0000000E-010
 1.3490168E+000, 1.4510220E+000,-4.3172535E-002, 1.0000000E-010
 1.3652682E+000, 1.4206693E+000,-2.9796987E-002, 1.0000000E-010
 1.3800293E+000, 1.3928565E+000,-1.6807032E-002, 1.0000000E-010
 1.3962665E+000, 1.3619159E+000,-7.1523157E-003, 1.0000000E-010
 1.4110068E+000, 1.3336376E+000, 1.9311995E-003, 1.0000000E-010
 1.4272211E+000, 1.3022444E+000, 7.8490945E-003, 1.0000000E-010
 1.4419570E+000, 1.2735769E+000, 1.3022223E-002, 1.0000000E-010
 1.4581666E+000, 1.2418160E+000, 1.5219328E-002, 1.0000000E-010
 1.4729092E+000, 1.2128460E+000, 1.6472852E-002, 1.0000000E-010
 1.4891262E+000, 1.1808136E+000, 1.4945549E-002, 1.0000000E-010
 1.5038694E+000, 1.1516634E+000, 1.2276342E-002, 1.0000000E-010
 1.5200869E+000, 1.1194945E+000, 7.0372969E-003, 1.0000000E-010
 1.5348244E+000, 1.0902870E+000, 4.6479539E-004, 1.0000000E-010
 1.5510356E+000, 1.0581173E+000,-8.4424770E-003, 1.0000000E-010
 1.5657769E+000, 1.0289451E+000,-1.8888212E-002, 1.0000000E-010
 1.5819923E+000, 9.9687703E-001,-3.1418497E-002, 1.0000000E-010
 1.5967566E+000, 9.6781404E-001,-4.5714956E-002, 1.0000000E-010
 1.6129972E+000, 9.3592914E-001,-6.1835425E-002, 1.0000000E-010
 1.6277672E+000, 9.0712247E-001,-7.9937734E-002, 1.0000000E-010
 1.6440142E+000, 8.7558144E-001,-9.9539143E-002, 1.0000000E-010
 1.6587850E+000, 8.4715296E-001,-1.2136713E-001, 1.0000000E-010
 1.6750326E+000, 8.1608915E-001,-1.4435006E-001, 1.0000000E-010
 1.6898111E+000, 7.8813594E-001,-1.6982936E-001, 1.0000000E-010
 1.7060674E+000, 7.5765537E-001,-1.9610578E-001, 1.0000000E-010
 1.7208350E+000, 7.3032276E-001,-2.2512856E-001, 1.0000000E-010
 1.7370793E+000, 7.0058247E-001,-2.5450898E-001, 1.0000000E-010
 1.7518463E+000, 6.7395719E-001,-2.8696027E-001, 1.0000000E-010
 1.7680900E+000, 6.4505149E-001,-3.1935682E-001, 1.0000000E-010
 1.7828726E+000, 6.1921042E-001,-3.5515198E-001, 1.0000000E-010
 1.7991333E+000, 5.9122264E-001,-3.9046525E-001, 1.0000000E-010
 1.8139187E+000, 5.6629179E-001,-4.2947728E-001, 1.0000000E-010
 1.8301826E+000, 5.3935677E-001,-4.6747764E-001, 1.0000000E-010
 1.8449661E+000, 5.1544282E-001,-5.0954199E-001, 1.0000000E-010
 1.8612278E+000, 4.8967475E-001,-5.5005431E-001, 1.0000000E-010
 1.8760203E+000, 4.6685403E-001,-5.9502999E-001, 1.0000000E-010
 1.8922920E+000, 4.4233481E-001,-6.3793386E-001, 1.0000000E-010
 1.9070791E+000, 4.2072014E-001,-6.8565092E-001, 1.0000000E-010
 1.9233449E+000, 3.9756863E-001,-7.3066267E-001, 1.0000000E-010
 1.9381276E+000, 3.7724034E-001,-7.8092365E-001, 1.0000000E-010
 1.9543886E+000, 3.5554155E-001,-8.2787870E-001, 1.0000000E-010
 1.9691774E+000, 3.3656260E-001,-8.8051984E-001, 1.0000000E-010
 1.9854450E+000, 3.1638304E-001,-9.2926925E-001, 1.0000000E-010
 2.0002370E+000, 2.9882948E-001,-9.8411551E-001, 1.0000000E-010
 2.0165081E+000, 2.8024816E-001,-1.0344132E+000, 1.0000000E-010
 2.0312951E+000, 2.6419348E-001,-1.0912476E+000, 1.0000000E-010
 2.0475609E+000, 2.4728612E-001,-1.1428408E+000, 1.0000000E-010
 2.0623510E+000, 2.3277691E-001,-1.2014536E+000, 1.0000000E-010
 2.0786200E+000, 2.1759204E-001,-1.2541996E+000, 1.0000000E-010
 2.0934162E+000, 2.0467551E-001,-1.3144059E+000, 1.0000000E-010
 2.1096923E+000, 1.9126134E-001,-1.3680917E+000, 1.0000000E-010
 2.1244793E+000, 1.7999265E-001,-1.4296633E+000, 1.0000000E-010
 2.1407454E+000, 1.6840373E-001,-1.4839709E+000, 1.0000000E-010
 2.1555328E+000, 1.5880703E-001,-1.5466609E+000, 1.0000000E-010
 2.1717989E+000, 1.4906853E-001,-1.6014856E+000, 1.0000000E-010
 2.1866007E+000, 1.4116365E-001,-1.6651180E+000, 1.0000000E-010
 2.2028825E+000, 1.3329614E-001,-1.7203203E+000, 1.0000000E-010
 2.2176719E+000, 1.2712060E-001,-1.7846834E+000, 1.0000000E-010
 2.2339404E+000, 1.2115783E-001,-1.8398413E+000, 1.0000000E-010
 2.2487288E+000, 1.1671739E-001,-1.9046362E+000, 1.0000000E-010
 2.2649961E+000, 1.1266642E-001,-1.9597102E+000, 1.0000000E-010
 2.2797983E+000, 1.0996788E-001,-2.0247620E+000, 1.0000000E-010
 2.2960808E+000, 1.0783610E-001,-2.0796217E+000, 1.0000000E-010
 2.3108697E+000, 1.0689181E-001,-2.1447316E+000, 1.0000000E-010
 2.3271377E+000, 1.0668597E-001,-2.1989606E+000, 1.0000000E-010
 2.3419244E+000, 1.0749096E-001,-2.2638099E+000, 1.0000000E-010
 2.3581898E+000, 1.0920722E-001,-2.3173825E+000, 1.0000000E-010
 2.3729870E+000, 1.1175974E-001,-2.3817908E+000, 1.0000000E-010
 2.3892641E+000, 1.1539631E-001,-2.4345764E+000, 1.0000000E-010
 2.4040582E+000, 1.1968936E-001,-2.4983579E+000, 1.0000000E-010
 2.4203317E+000, 1.2523407E-001,-2.5500474E+000, 1.0000000E-010
 2.4351223E+000, 1.3125420E-001,-2.6129189E+000, 1.0000000E-010
 2.4513917E+000, 1.3869124E-001,-2.6633829E+000, 1.0000000E-010
 2.4661894E+000, 1.4642684E-001,-2.7251183E+000, 1.0000000E-010
 2.4824669E+000, 1.5574326E-001,-2.7742563E+000, 1.0000000E-010
 2.4972625E+000, 1.6517065E-001,-2.8346728E+000, 1.0000000E-010
 2.5135376E+000, 1.7633604E-001,-2.8822290E+000, 1.0000000E-010
 2.5283284E+000, 1.8742580E-001,-2.9410643E+000, 1.0000000E-010
 2.5445983E+000, 2.0040516E-001,-2.9868926E+000, 1.0000000E-010
 2.5593934E+000, 2.1313102E-001,-3.0439130E+000, 1.0000000E-010
 2.5756681E+000, 2.2789389E-001,-3.0879203E+000, 1.0000000E-010
 2.5904665E+000, 2.4221760E-001,-3.1429443E+000, 1.0000000E-010
 2.6067450E+000, 2.5871780E-001,-3.1849485E+000, 1.0000000E-010
 2.6215358E+000, 2.7458210E-001,-3.2377608E+000, 1.0000000E-010
 2.6378057E+000, 2.9275133E-001,-3.2775643E+000, 1.0000000E-010
 2.6525981E+000, 3.1011002E-001,-3.3279076E+000, 1.0000000E-010
 2.6688697E+000, 3.2989534E-001,-3.3654535E+000, 1.0000000E-010
 2.6836722E+000, 3.4869840E-001,-3.4131555E+000, 1.0000000E-010
 2.6999550E+000, 3.7004149E-001,-3.4483311E+000, 1.0000000E-010
 2.7147470E+000, 3.9019426E-001,-3.4932383E+000, 1.0000000E-010
 2.7310183E+000, 4.1298408E-001,-3.5258066E+000, 1.0000000E-010
 2.7458105E+000, 4.3442204E-001,-3.5676484E+000, 1.0000000E-010
 2.7620821E+000, 4.5858625E-001,-3.5975965E+000, 1.0000000E-010
 2.7768865E+000, 4.8124492E-001,-3.6362271E+000, 1.0000000E-010
 2.7931714E+000, 5.0671022E-001,-3.6634697E+000, 1.0000000E-010
 2.8079612E+000, 5.3046086E-001,-3.6987771E+000, 1.0000000E-010
 2.8242297E+000, 5.5707960E-001,-3.7230950E+000, 1.0000000E-010
 2.8390179E+000, 5.8184742E-001,-3.7548333E+000, 1.0000000E-010
 2.8552849E+000, 6.0953743E-001,-3.7762424E+000, 1.0000000E-010
 2.8700850E+000, 6.3524925E-001,-3.8043046E+000, 1.0000000E-010
 2.8863652E+000, 6.6392886E-001,-3.8227369E+000, 1.0000000E-010
 2.9011571E+000, 6.9045192E-001,-3.8470412E+000, 1.0000000E-010
 2.9174283E+000, 7.1997143E-001,-3.8623491E+000, 1.0000000E-010
 2.9322176E+000, 7.4721258E-001,-3.8827331E+000, 1.0000000E-010
 2.9484859E+000, 7.7746922E-001,-3.8949011E+000, 1.0000000E-010
 2.9632840E+000, 8.0534699E-001,-3.9112768E+000, 1.0000000E-010
 2.9795623E+000, 8.3625030E-001,-3.9202632E+000, 1.0000000E-010
 2.9943535E+000, 8.6463001E-001,-3.9325794E+000, 1.0000000E-010
 3.0106239E+000, 8.9602911E-001,-3.9383005E+000, 1.0000000E-010
 3.0254107E+000, 9.2480722E-001,-3.9464715E+000, 1.0000000E-010
 3.0416763E+000, 9.5658721E-001,-3.9489163E+000, 1.0000000E-010
 3.0564680E+000, 9.8567168E-001,-3.9529015E+000, 1.0000000E-010
 3.0727391E+000, 1.0177298E+000,-3.9520500E+000, 1.0000000E-010
 3.0875325E+000, 1.0470018E+000,-3.9518334E+000, 1.0000000E-010
 3.1038055E+000, 1.0792053E+000,-3.9476628E+000, 1.0000000E-010
 3.1185930E+000, 1.1085336E+000,-3.9432393E+000, 1.0000000E-010
 3.1348593E+000, 1.1407367E+000,-3.9357530E+000, 1.0000000E-010
 3.1496494E+000, 1.1700195E+000,-3.9271356E+000, 1.0000000E-010
 3.1659186E+000, 1.2021094E+000,-3.9163460E+000, 1.0000000E-010
 3.1807158E+000, 1.2312362E+000,-3.9035675E+000, 1.0000000E-010
 3.1969929E+000, 1.2630908E+000,-3.8894912E+000, 1.0000000E-010
 3.2117801E+000, 1.2919076E+000,-3.8726070E+000, 1.0000000E-010
 3.2280457E+000, 1.3233585E+000,-3.8553063E+000, 1.0000000E-010
 3.2428336E+000, 1.3517680E+000,-3.8344041E+000, 1.0000000E-010
 3.2591002E+000, 1.3827101E+000,-3.8139135E+000, 1.0000000E-010
 3.2738993E+000, 1.4106170E+000,-3.7890740E+000, 1.0000000E-010
 3.2901783E+000, 1.4409475E+000,-3.7654363E+000, 1.0000000E-010
 3.3049648E+000, 1.4681965E+000,-3.7367590E+000, 1.0000000E-010
 3.3212299E+000, 1.4977488E+000,-3.7101148E+000, 1.0000000E-010
 3.3360162E+000, 1.5242592E+000,-3.6777640E+000, 1.0000000E-010
 3.3522809E+000, 1.5529480E+000,-3.6481537E+000, 1.0000000E-010
 3.3670821E+000, 1.5786485E+000,-3.6122452E+000, 1.0000000E-010
 3.3833632E+000, 1.6063985E+000,-3.5797235E+000, 1.0000000E-010
 3.3981540E+000, 1.6311534E+000,-3.5403836E+000, 1.0000000E-010
 3.4144237E+000, 1.6578202E+000,-3.5051600E+000, 1.0000000E-010
 3.4292121E+000, 1.6815598E+000,-3.4626119E+000, 1.0000000E-010
 3.4454794E+000, 1.7070698E+000,-3.4247428E+000, 1.0000000E-010
 3.4602785E+000, 1.7297339E+000,-3.3791408E+000, 1.0000000E-010
 3.4765575E+000, 1.7540225E+000,-3.3387050E+000, 1.0000000E-010
 3.4913476E+000, 1.7755051E+000,-3.2902105E+000, 1.0000000E-010
 3.5076165E+000, 1.7984592E+000,-3.2474439E+000, 1.0000000E-010
 3.5224037E+000, 1.8186976E+000,-3.1963080E+000, 1.0000000E-010
 3.5386693E+000, 1.8402491E+000,-3.1512955E+000, 1.0000000E-010
 3.5534647E+000, 1.8591878E+000,-3.0977041E+000, 1.0000000E-010
 3.5697393E+000, 1.8792760E+000,-3.0505471E+000, 1.0000000E-010
 3.5845382E+000, 1.8968393E+000,-2.9946843E+000, 1.0000000E-010
 3.6008170E+000, 1.9153826E+000,-2.9455842E+000, 1.0000000E-010
 3.6156108E+000, 1.9314947E+000,-2.8876948E+000, 1.0000000E-010
 3.6318841E+000, 1.9484125E+000,-2.8368591E+000, 1.0000000E-010
 3.6466815E+000, 1.9630215E+000,-2.7771956E+000, 1.0000000E-010
 3.6629591E+000, 1.9782577E+000,-2.7247353E+000, 1.0000000E-010
 3.6777575E+000, 1.9913033E+000,-2.6635119E+000, 1.0000000E-010
 3.6940360E+000, 2.0047946E+000,-2.6096468E+000, 1.0000000E-010
 3.7088275E+000, 2.0162197E+000,-2.5471246E+000, 1.0000000E-010
 3.7250984E+000, 2.0279076E+000,-2.4920924E+000, 1.0000000E-010
 3.7398918E+000, 2.0376769E+000,-2.4285333E+000, 1.0000000E-010
 3.7561648E+000, 2.0475251E+000,-2.3724590E+000, 1.0000000E-010
 3.7709761E+000, 2.0556110E+000,-2.3080610E+000, 1.0000000E-010
 3.7872689E+000, 2.0635905E+000,-2.2510681E+000, 1.0000000E-010
 3.8020692E+000, 2.0699470E+000,-2.1860740E+000, 1.0000000E-010
 3.8183494E+000, 2.0760151E+000,-2.1285973E+000, 1.0000000E-010
 3.8331499E+000, 2.0806300E+000,-2.0633254E+000, 1.0000000E-010
 3.8494306E+000, 2.0847745E+000,-2.0054314E+000, 1.0000000E-010
 3.8642418E+000, 2.0876366E+000,-1.9400810E+000, 1.0000000E-010
 3.8805344E+000, 2.0898463E+000,-1.8819434E+000, 1.0000000E-010
 3.8953314E+000, 2.0909429E+000,-1.8167795E+000, 1.0000000E-010
 3.9116082E+000, 2.0912098E+000,-1.7588101E+000, 1.0000000E-010
 3.9264040E+000, 2.0905433E+000,-1.6941215E+000, 1.0000000E-010
 3.9426794E+000, 2.0888692E+000,-1.6363893E+000, 1.0000000E-010
 3.9574878E+000, 2.0864390E+000,-1.5723626E+000, 1.0000000E-010
 3.9737768E+000, 2.0828229E+000,-1.5150378E+000, 1.0000000E-010
 3.9885862E+000, 2.0786331E+000,-1.4519105E+000, 1.0000000E-010
 4.0048766E+000, 2.0730825E+000,-1.3953319E+000, 1.0000000E-010
 4.0196834E+000, 2.0671434E+000,-1.3333822E+000, 1.0000000E-010
 4.0359707E+000, 2.0596716E+000,-1.2777774E+000, 1.0000000E-010
 4.0507855E+000, 2.0519913E+000,-1.2172298E+000, 1.0000000E-010
 4.0670824E+000, 2.0426077E+000,-1.1627513E+000, 1.0000000E-010
 4.0818882E+000, 2.0332129E+000,-1.1038645E+000, 1.0000000E-010
 4.0981746E+000, 2.0219523E+000,-1.0508866E+000, 1.0000000E-010
 4.1129761E+000, 2.0108669E+000,-9.9390884E-001, 1.0000000E-010
 4.1292582E+000, 1.9977578E+000,-9.4258572E-001, 1.0000000E-010
 4.1440649E+000, 1.9850065E+000,-8.8771016E-001, 1.0000000E-010
 4.1603527E+000, 1.9700789E+000,-8.3822787E-001, 1.0000000E-010
 4.1751723E+000, 1.9556920E+000,-7.8563949E-001, 1.0000000E-010
 4.1914740E+000, 1.9389832E+000,-7.3820583E-001, 1.0000000E-010
 4.2062869E+000, 1.9230267E+000,-6.8814815E-001, 1.0000000E-010
 4.2225814E+000, 1.9046163E+000,-6.4310420E-001, 1.0000000E-010
 4.2373967E+000, 1.8871391E+000,-5.9576889E-001, 1.0000000E-010
 4.2536931E+000, 1.8670848E+000,-5.5322653E-001, 1.0000000E-010
 4.2685103E+000, 1.8481527E+000,-5.0878655E-001, 1.0000000E-010
 4.2848091E+000, 1.8265317E+000,-4.6895924E-001, 1.0000000E-010
 4.2996163E+000, 1.8062345E+000,-4.2760346E-001, 1.0000000E-010
 4.3159041E+000, 1.7831509E+000,-3.9071907E-001, 1.0000000E-010
 4.3307128E+000, 1.7615561E+000,-3.5258037E-001, 1.0000000E-010
 4.3470016E+000, 1.7370872E+000,-3.1872873E-001, 1.0000000E-010
 4.3618279E+000, 1.7142551E+000,-2.8390853E-001, 1.0000000E-010
 4.3781366E+000, 1.6884694E+000,-2.5319689E-001, 1.0000000E-010
 4.3929539E+000, 1.6645316E+000,-2.2186407E-001, 1.0000000E-010
 4.4092531E+000, 1.6375786E+000,-1.9455236E-001, 1.0000000E-010
 4.4240694E+000, 1.6126196E+000,-1.6680861E-001, 1.0000000E-010
 4.4403672E+000, 1.5845945E+000,-1.4293847E-001, 1.0000000E-010
 4.4551969E+000, 1.5586882E+000,-1.1886012E-001, 1.0000000E-010
 4.4715095E+000, 1.5296737E+000,-9.8504385E-002, 1.0000000E-010
 4.4863234E+000, 1.5029723E+000,-7.8211003E-002, 1.0000000E-010
 4.5026183E+000, 1.4731390E+000,-6.1539001E-002, 1.0000000E-010
 4.5174308E+000, 1.4457218E+000,-4.5076658E-002, 1.0000000E-010
 4.5337243E+000, 1.4151584E+000,-3.2079983E-002, 1.0000000E-010
 4.5485201E+000, 1.3871613E+000,-1.9513548E-002, 1.0000000E-010
 4.5647950E+000, 1.3560192E+000,-1.0269305E-002, 1.0000000E-010
 4.5795703E+000, 1.3275571E+000,-1.6242948E-003, 1.0000000E-010
 4.5958233E+000, 1.2959645E+000, 3.8662770E-003, 1.0000000E-010
 4.6105947E+000, 1.2671171E+000, 8.5853319E-003, 1.0000000E-010
 4.6268435E+000, 1.2351629E+000, 1.0337180E-002, 1.0000000E-010
 4.6416235E+000, 1.2060180E+000, 1.1123636E-002, 1.0000000E-010
 4.6578813E+000, 1.1737998E+000, 9.1384055E-003, 1.0000000E-010
 4.6726589E+000, 1.1444925E+000, 5.9923424E-003, 1.0000000E-010
 4.6889138E+000, 1.1121597E+000, 2.9122859E-004, 1.0000000E-010
 4.7036862E+000, 1.0828108E+000,-6.7599835E-003, 1.0000000E-010
 4.7199359E+000, 1.0504973E+000,-1.6124723E-002, 1.0000000E-010
 4.7347136E+000, 1.0212021E+000,-2.7047385E-002, 1.0000000E-010
 4.7509694E+000, 9.8901322E-001,-4.0023994E-002, 1.0000000E-010
 4.7657723E+000, 9.5984948E-001,-5.4791151E-002, 1.0000000E-010
 4.7820559E+000, 9.2787087E-001,-7.1340395E-002, 1.0000000E-010
 4.7968616E+000, 8.9900043E-001,-8.9897834E-002, 1.0000000E-010
 4.8131485E+000, 8.6740801E-001,-1.0989027E-001, 1.0000000E-010
