s,m/s,Pa,kg/m/s
FDS Time,"UVEL","PRES","VISC"
 0.0000000E+000, 1.3901806E+000,-1.8421861E+000, 1.0000000E-010
 3.1702850E-002, 1.4547785E+000,-3.6636282E+000, 1.0000000E-010
 6.1613508E-002, 1.5103785E+000,-3.6576401E+000, 1.0000000E-010
 9.4515234E-002, 1.5701860E+000,-3.5979830E+000, 1.0000000E-010
 1.2439870E-001, 1.6232304E+000,-3.5328138E+000, 1.0000000E-010
 1.5727052E-001, 1.6797498E+000,-3.4604298E+000, 1.0000000E-010
 1.8720305E-001, 1.7295017E+000,-3.3835494E+000, 1.0000000E-010
 2.2012885E-001, 1.7819818E+000,-3.2988024E+000, 1.0000000E-010
 2.5008860E-001, 1.8276192E+000,-3.2113235E+000, 1.0000000E-010
 2.8304434E-001, 1.8752069E+000,-3.1153076E+000, 1.0000000E-010
 3.1296656E-001, 1.9159511E+000,-3.0187384E+000, 1.0000000E-010
 3.4588102E-001, 1.9578602E+000,-2.9129298E+000, 1.0000000E-010
 3.7582889E-001, 1.9932289E+000,-2.8086568E+000, 1.0000000E-010
 4.0877157E-001, 2.0289757E+000,-2.6942326E+000, 1.0000000E-010
 4.3869120E-001, 2.0584364E+000,-2.5839739E+000, 1.0000000E-010
 4.7160280E-001, 2.0874995E+000,-2.4627486E+000, 1.0000000E-010
 5.0143582E-001, 2.1106588E+000,-2.3484656E+000, 1.0000000E-010
 5.3425217E-001, 2.1326653E+000,-2.2224439E+000, 1.0000000E-010
 5.6408590E-001, 2.1493459E+000,-2.1056167E+000, 1.0000000E-010
 5.9690309E-001, 2.1641149E+000,-1.9762821E+000, 1.0000000E-010
 6.2685788E-001, 2.1741468E+000,-1.8582050E+000, 1.0000000E-010
 6.5980816E-001, 2.1814887E+000,-1.7270022E+000, 1.0000000E-010
 6.8968731E-001, 2.1846375E+000,-1.6104276E+000, 1.0000000E-010
 7.2255439E-001, 2.1843728E+000,-1.4803738E+000, 1.0000000E-010
 7.5242406E-001, 2.1806110E+000,-1.3668603E+000, 1.0000000E-010
 7.8528064E-001, 2.1727176E+000,-1.2398492E+000, 1.0000000E-010
 8.1524754E-001, 2.1620097E+000,-1.1308236E+000, 1.0000000E-010
 8.4821117E-001, 2.1464571E+000,-1.0086674E+000, 1.0000000E-010
 8.7803251E-001, 2.1289803E+000,-9.0719684E-001, 1.0000000E-010
 9.1083598E-001, 2.1060721E+000,-7.9311810E-001, 1.0000000E-010
 9.4063157E-001, 2.0820139E+000,-7.0004785E-001, 1.0000000E-010
 9.7340667E-001, 2.0519812E+000,-5.9562893E-001, 1.0000000E-010
 1.0032629E+000, 2.0215706E+000,-5.1223259E-001, 1.0000000E-010
 1.0361048E+000, 1.9847132E+000,-4.1913190E-001, 1.0000000E-010
 1.0659693E+000, 1.9484131E+000,-3.4707687E-001, 1.0000000E-010
 1.0988202E+000, 1.9053230E+000,-2.6718797E-001, 1.0000000E-010
 1.1286478E+000, 1.8637508E+000,-2.0759257E-001, 1.0000000E-010
 1.1614581E+000, 1.8151858E+000,-1.4237919E-001, 1.0000000E-010
 1.1913211E+000, 1.7689096E+000,-9.5700236E-002, 1.0000000E-010
 1.2241703E+000, 1.7155475E+000,-4.6027152E-002, 1.0000000E-010
 1.2540431E+000, 1.6653582E+000,-1.2938745E-002, 1.0000000E-010
 1.2869031E+000, 1.6081208E+000, 2.0458189E-002, 1.0000000E-010
 1.3167150E+000, 1.5549681E+000, 3.9654257E-002, 1.0000000E-010
 1.3495080E+000, 1.4949383E+000, 5.6436654E-002, 1.0000000E-010
 1.3793347E+000, 1.4395442E+000, 6.1918037E-002, 1.0000000E-010
 1.4121441E+000, 1.3775282E+000, 6.2149150E-002, 1.0000000E-010
 1.4420609E+000, 1.3206057E+000, 5.3976529E-002, 1.0000000E-010
 1.4749695E+000, 1.2573861E+000, 3.7815408E-002, 1.0000000E-010
 1.5047994E+000, 1.2001244E+000, 1.6297028E-002, 1.0000000E-010
 1.5376123E+000, 1.1369947E+000,-1.5635790E-002, 1.0000000E-010
 1.5674474E+000, 1.0800268E+000,-5.0046553E-002, 1.0000000E-010
 1.6002660E+000, 1.0176725E+000,-9.7084208E-002, 1.0000000E-010
 1.6302116E+000, 9.6158864E-001,-1.4406738E-001, 1.0000000E-010
 1.6631517E+000, 9.0064553E-001,-2.0556787E-001, 1.0000000E-010
 1.6929823E+000, 8.4664036E-001,-2.6392721E-001, 1.0000000E-010
 1.7257960E+000, 7.8838137E-001,-3.3829675E-001, 1.0000000E-010
 1.7556195E+000, 7.3697625E-001,-4.0751431E-001, 1.0000000E-010
 1.7884253E+000, 6.8197374E-001,-4.9365034E-001, 1.0000000E-010
 1.8183585E+000, 6.3370717E-001,-5.7309242E-001, 1.0000000E-010
 1.8512851E+000, 5.8255309E-001,-6.6991351E-001, 1.0000000E-010
 1.8811445E+000, 5.3845968E-001,-7.5776184E-001, 1.0000000E-010
 1.9139899E+000, 4.9223957E-001,-8.6303583E-001, 1.0000000E-010
 1.9438329E+000, 4.5290299E-001,-9.5831892E-001, 1.0000000E-010
 1.9766603E+000, 4.1224757E-001,-1.0704202E+000, 1.0000000E-010
 2.0065897E+000, 3.7820286E-001,-1.1720945E+000, 1.0000000E-010
 2.0395119E+000, 3.4368668E-001,-1.2895467E+000, 1.0000000E-010
 2.0694027E+000, 3.1570241E-001,-1.3955773E+000, 1.0000000E-010
 2.1022828E+000, 2.8808604E-001,-1.5159945E+000, 1.0000000E-010
 2.1321440E+000, 2.6662823E-001,-1.6249178E+000, 1.0000000E-010
 2.1649916E+000, 2.4637103E-001,-1.7464344E+000, 1.0000000E-010
 2.1949079E+000, 2.3175760E-001,-1.8569746E+000, 1.0000000E-010
 2.2278161E+000, 2.1916553E-001,-1.9781003E+000, 1.0000000E-010
 2.2577462E+000, 2.1168862E-001,-2.0885256E+000, 1.0000000E-010
 2.2906694E+000, 2.0699181E-001,-2.2073772E+000, 1.0000000E-010
 2.3205614E+000, 2.0674357E-001,-2.3159915E+000, 1.0000000E-010
 2.3534427E+000, 2.0995934E-001,-2.4307904E+000, 1.0000000E-010
 2.3833671E+000, 2.1685838E-001,-2.5363086E+000, 1.0000000E-010
 2.4162838E+000, 2.2786170E-001,-2.6458662E+000, 1.0000000E-010
 2.4462807E+000, 2.4175438E-001,-2.7469826E+000, 1.0000000E-010
 2.4792769E+000, 2.6032878E-001,-2.8501006E+000, 1.0000000E-010
 2.5091984E+000, 2.8085223E-001,-2.9451478E+000, 1.0000000E-010
 2.5421121E+000, 3.0650867E-001,-3.0401903E+000, 1.0000000E-010
 2.5720417E+000, 3.3327482E-001,-3.1279443E+000, 1.0000000E-010
 2.6049643E+000, 3.6559341E-001,-3.2141148E+000, 1.0000000E-010
 2.6350155E+000, 3.9827113E-001,-3.2936017E+000, 1.0000000E-010
 2.6680720E+000, 4.3688382E-001,-3.3702011E+000, 1.0000000E-010
 2.6980281E+000, 4.7475734E-001,-3.4400814E+000, 1.0000000E-010
 2.7309799E+000, 5.1879414E-001,-3.5057728E+000, 1.0000000E-010
 2.7609353E+000, 5.6138412E-001,-3.5649127E+000, 1.0000000E-010
 2.7938862E+000, 6.1033385E-001,-3.6191314E+000, 1.0000000E-010
 2.8239582E+000, 6.5724164E-001,-3.6667800E+000, 1.0000000E-010
 2.8570373E+000, 7.1065374E-001,-3.7089849E+000, 1.0000000E-010
 2.8869982E+000, 7.6091783E-001,-3.7442521E+000, 1.0000000E-010
 2.9199555E+000, 8.1766171E-001,-3.7736179E+000, 1.0000000E-010
 2.9498940E+000, 8.7072100E-001,-3.7957758E+000, 1.0000000E-010
 2.9828265E+000, 9.3017341E-001,-3.8119180E+000, 1.0000000E-010
 3.0128298E+000, 9.8546597E-001,-3.8205846E+000, 1.0000000E-010
 3.0458336E+000, 1.0469798E+000,-3.8231535E+000, 1.0000000E-010
 3.0758369E+000, 1.1036233E+000,-3.8180264E+000, 1.0000000E-010
 3.1088405E+000, 1.1661878E+000,-3.8067737E+000, 1.0000000E-010
 3.1388128E+000, 1.2233009E+000,-3.7877815E+000, 1.0000000E-010
 3.1717825E+000, 1.2859265E+000,-3.7626537E+000, 1.0000000E-010
 3.2017977E+000, 1.3427934E+000,-3.7299454E+000, 1.0000000E-010
 3.2348144E+000, 1.4046839E+000,-3.6909430E+000, 1.0000000E-010
 3.2648575E+000, 1.4604059E+000,-3.6448542E+000, 1.0000000E-010
 3.2979047E+000, 1.5205714E+000,-3.5922564E+000, 1.0000000E-010
 3.3278785E+000, 1.5741090E+000,-3.5335049E+000, 1.0000000E-010
 3.3608496E+000, 1.6314304E+000,-3.4680203E+000, 1.0000000E-010
 3.3908322E+000, 1.6820982E+000,-3.3974573E+000, 1.0000000E-010
 3.4238129E+000, 1.7358499E+000,-3.3196006E+000, 1.0000000E-010
 3.4538851E+000, 1.7829945E+000,-3.2380266E+000, 1.0000000E-010
 3.4869645E+000, 1.8324831E+000,-3.1484105E+000, 1.0000000E-010
 3.5169475E+000, 1.8751102E+000,-3.0572969E+000, 1.0000000E-010
 3.5499289E+000, 1.9193126E+000,-2.9576064E+000, 1.0000000E-010
 3.5799129E+000, 1.9569436E+000,-2.8583034E+000, 1.0000000E-010
 3.6128955E+000, 1.9953702E+000,-2.7494960E+000, 1.0000000E-010
 3.6430011E+000, 2.0275877E+000,-2.6430595E+000, 1.0000000E-010
 3.6761172E+000, 2.0597975E+000,-2.5260856E+000, 1.0000000E-010
 3.7061555E+000, 2.0859140E+000,-2.4146396E+000, 1.0000000E-010
 3.7391977E+000, 2.1112338E+000,-2.2919160E+000, 1.0000000E-010
 3.7692146E+000, 2.1309446E+000,-2.1771714E+000, 1.0000000E-010
 3.8022335E+000, 2.1490673E+000,-2.0503150E+000, 1.0000000E-010
 3.8323202E+000, 2.1621291E+000,-1.9337239E+000, 1.0000000E-010
 3.8654158E+000, 2.1727988E+000,-1.8043049E+000, 1.0000000E-010
 3.8954656E+000, 2.1789325E+000,-1.6882166E+000, 1.0000000E-010
 3.9285204E+000, 2.1819062E+000,-1.5588413E+000, 1.0000000E-010
 3.9585423E+000, 2.1810106E+000,-1.4451532E+000, 1.0000000E-010
 3.9915667E+000, 2.1762105E+000,-1.3180052E+000, 1.0000000E-010
 4.0216441E+000, 2.1682427E+000,-1.2082773E+000, 1.0000000E-010
 4.0547299E+000, 2.1556420E+000,-1.0852933E+000, 1.0000000E-010
 4.0848002E+000, 2.1406609E+000,-9.8178120E-001, 1.0000000E-010
 4.1178775E+000, 2.1203929E+000,-8.6552797E-001, 1.0000000E-010
 4.1478930E+000, 2.0986176E+000,-7.7016173E-001, 1.0000000E-010
 4.1809096E+000, 2.0709920E+000,-6.6299832E-001, 1.0000000E-010
 4.2109427E+000, 2.0426806E+000,-5.7697812E-001, 1.0000000E-010
 4.2439790E+000, 2.0080284E+000,-4.8065207E-001, 1.0000000E-010
 4.2740865E+000, 1.9735175E+000,-4.0524625E-001, 1.0000000E-010
 4.3072047E+000, 1.9322666E+000,-3.2141765E-001, 1.0000000E-010
 4.3372416E+000, 1.8922553E+000,-2.5838924E-001, 1.0000000E-010
 4.3702822E+000, 1.8452693E+000,-1.8892849E-001, 1.0000000E-010
 4.4003315E+000, 1.8003078E+000,-1.3859647E-001, 1.0000000E-010
 4.4333858E+000, 1.7482409E+000,-8.4399021E-002, 1.0000000E-010
 4.4634619E+000, 1.6990361E+000,-4.7418688E-002, 1.0000000E-010
 4.4965463E+000, 1.6427136E+000,-9.2615348E-003, 1.0000000E-010
 4.5265188E+000, 1.5902954E+000, 1.3820970E-002, 1.0000000E-010
 4.5594888E+000, 1.5308968E+000, 3.5436220E-002, 1.0000000E-010
 4.5894594E+000, 1.4759369E+000, 4.4896364E-002, 1.0000000E-010
 4.6224270E+000, 1.4142164E+000, 5.0011933E-002, 1.0000000E-010
 4.6525207E+000, 1.3573293E+000, 4.5862624E-002, 1.0000000E-010
 4.6856236E+000, 1.2939654E+000, 3.4543665E-002, 1.0000000E-010
 4.7156291E+000, 1.2364071E+000, 1.6944195E-002, 1.0000000E-010
 4.7486358E+000, 1.1727757E+000,-1.0308731E-002, 1.0000000E-010
 4.7786336E+000, 1.1152216E+000,-4.0890826E-002, 1.0000000E-010
 4.8116312E+000, 1.0520615E+000,-8.3444499E-002, 1.0000000E-010
 4.8417377E+000, 9.9510450E-001,-1.2672931E-001, 1.0000000E-010
 4.8748546E+000, 9.3305990E-001,-1.8399776E-001, 1.0000000E-010
 4.9048476E+000, 8.7792817E-001,-2.3888486E-001, 1.0000000E-010
 4.9378395E+000, 8.1831566E-001,-3.0936642E-001, 1.0000000E-010
 4.9678082E+000, 7.6560549E-001,-3.7529093E-001, 1.0000000E-010
 5.0007734E+000, 7.0907928E-001,-4.5785186E-001, 1.0000000E-010
 5.0308127E+000, 6.5940247E-001,-5.3412177E-001, 1.0000000E-010
 5.0638561E+000, 6.0663240E-001,-6.2760046E-001, 1.0000000E-010
 5.0938797E+000, 5.6091710E-001,-7.1278444E-001, 1.0000000E-010
 5.1269059E+000, 5.1289081E-001,-8.1529180E-001, 1.0000000E-010
 5.1568990E+000, 4.7190032E-001,-9.0811088E-001, 1.0000000E-010
 5.1898909E+000, 4.2942876E-001,-1.0177771E+000, 1.0000000E-010
 5.2199378E+000, 3.9375824E-001,-1.1171559E+000, 1.0000000E-010
 5.2529898E+000, 3.5747681E-001,-1.2323981E+000, 1.0000000E-010
 5.2830715E+000, 3.2782715E-001,-1.3367139E+000, 1.0000000E-010
 5.3161612E+000, 2.9844666E-001,-1.4555337E+000, 1.0000000E-010
 5.3461847E+000, 2.7545778E-001,-1.5628772E+000, 1.0000000E-010
 5.3792109E+000, 2.5358919E-001,-1.6829907E+000, 1.0000000E-010
 5.4092517E+000, 2.3758863E-001,-1.7920736E+000, 1.0000000E-010
 5.4422965E+000, 2.2354368E-001,-1.9119208E+000, 1.0000000E-010
 5.4724078E+000, 2.1478919E-001,-2.0213190E+000, 1.0000000E-010
 5.5055304E+000, 2.0878450E-001,-2.1393571E+000, 1.0000000E-010
 5.5355659E+000, 2.0743045E-001,-2.2470545E+000, 1.0000000E-010
 5.5686049E+000, 2.0950682E-001,-2.3611330E+000, 1.0000000E-010
 5.5986500E+000, 2.1543149E-001,-2.4658683E+000, 1.0000000E-010
 5.6317000E+000, 2.2542820E-001,-2.5748473E+000, 1.0000000E-010
 5.6618919E+000, 2.3848888E-001,-2.6755558E+000, 1.0000000E-010
 5.6951032E+000, 2.5622792E-001,-2.7785430E+000, 1.0000000E-010
 5.7251968E+000, 2.7603893E-001,-2.8733733E+000, 1.0000000E-010
 5.7582998E+000, 3.0096371E-001,-2.9684092E+000, 1.0000000E-010
 5.7883844E+000, 3.2708923E-001,-3.0560900E+000, 1.0000000E-010
 5.8214779E+000, 3.5873758E-001,-3.1424050E+000, 1.0000000E-010
 5.8516650E+000, 3.9080192E-001,-3.2219887E+000, 1.0000000E-010
 5.8848710E+000, 4.2875557E-001,-3.2989043E+000, 1.0000000E-010
 5.9149690E+000, 4.6603822E-001,-3.3691061E+000, 1.0000000E-010
 5.9480767E+000, 5.0942867E-001,-3.4353635E+000, 1.0000000E-010
 5.9781590E+000, 5.5139412E-001,-3.4950923E+000, 1.0000000E-010
 6.0112491E+000, 5.9964318E-001,-3.5501199E+000, 1.0000000E-010
 6.0414152E+000, 6.4582944E-001,-3.5986399E+000, 1.0000000E-010
 6.0745978E+000, 6.9841829E-001,-3.6419239E+000, 1.0000000E-010
 6.1048117E+000, 7.4815236E-001,-3.6784667E+000, 1.0000000E-010
 6.1380467E+000, 8.0430050E-001,-3.7093488E+000, 1.0000000E-010
 6.1682215E+000, 8.5675584E-001,-3.7331794E+000, 1.0000000E-010
 6.2014136E+000, 9.1551710E-001,-3.7511170E+000, 1.0000000E-010
 6.2316184E+000, 9.7007802E-001,-3.7617525E+000, 1.0000000E-010
 6.2648439E+000, 1.0307595E+000,-3.7664040E+000, 1.0000000E-010
 6.2950625E+000, 1.0866378E+000,-3.7635719E+000, 1.0000000E-010
 6.3283029E+000, 1.1483449E+000,-3.7546973E+000, 1.0000000E-010
